'Elapsed time','ECG 1','ECG 2','ECG 3','ECG 4'
'hh:mm:ss.mmm','mV','mV','mV','mV'
'0:00.000',0.370,-0.050,-0.580,-0.600
'0:00.002',0.390,-0.040,-0.570,-0.610
'0:00.004',0.400,-0.040,-0.580,-0.640
'0:00.006',0.430,-0.030,-0.570,-0.680
'0:00.008',0.440,-0.020,-0.570,-0.690
'0:00.010',0.450,-0.010,-0.560,-0.670
'0:00.012',0.450,-0.020,-0.560,-0.670
'0:00.014',0.440,-0.040,-0.550,-0.660
'0:00.016',0.440,-0.030,-0.540,-0.640
'0:00.018',0.450,-0.040,-0.530,-0.640
'0:00.020',0.450,-0.040,-0.530,-0.640
'0:00.022',0.430,-0.020,-0.510,-0.620
'0:00.024',0.410,-0.010,-0.470,-0.590
'0:00.026',0.390,-0.020,-0.460,-0.580
'0:00.028',0.370,-0.040,-0.440,-0.570
'0:00.030',0.360,-0.060,-0.410,-0.540
'0:00.032',0.330,-0.060,-0.390,-0.500
'0:00.034',0.310,-0.060,-0.370,-0.470
'0:00.036',0.280,-0.050,-0.360,-0.440
'0:00.038',0.270,-0.040,-0.340,-0.420
'0:00.040',0.260,-0.050,-0.330,-0.410
'0:00.042',0.220,-0.070,-0.300,-0.370
'0:00.044',0.170,-0.090,-0.270,-0.320
'0:00.046',0.120,-0.110,-0.240,-0.270
'0:00.048',0.070,-0.120,-0.200,-0.230
'0:00.050',0.030,-0.110,-0.170,-0.170
'0:00.052',0.000,-0.090,-0.150,-0.130
'0:00.054',0.000,-0.110,-0.120,-0.120
'0:00.056',-0.020,-0.130,-0.100,-0.100
'0:00.058',-0.040,-0.130,-0.090,-0.060
'0:00.060',-0.070,-0.150,-0.070,-0.020
'0:00.062',-0.110,-0.150,-0.040,0.020
'0:00.064',-0.140,-0.160,0.000,0.080
'0:00.066',-0.170,-0.150,0.020,0.140
'0:00.068',-0.180,-0.150,0.040,0.170
'0:00.070',-0.190,-0.140,0.060,0.180
'0:00.072',-0.200,-0.150,0.070,0.180
'0:00.074',-0.200,-0.150,0.070,0.190
'0:00.076',-0.210,-0.160,0.090,0.210
'0:00.078',-0.230,-0.150,0.110,0.250
'0:00.080',-0.250,-0.130,0.130,0.280
'0:00.082',-0.260,-0.120,0.140,0.300
'0:00.084',-0.280,-0.120,0.140,0.310
'0:00.086',-0.280,-0.120,0.140,0.310
'0:00.088',-0.270,-0.120,0.140,0.290
'0:00.090',-0.260,-0.120,0.130,0.270
'0:00.092',-0.260,-0.110,0.140,0.300
'0:00.094',-0.270,-0.090,0.170,0.340
'0:00.096',-0.280,-0.110,0.170,0.350
'0:00.098',-0.270,-0.110,0.180,0.350
'0:00.100',-0.270,-0.100,0.180,0.340
'0:00.102',-0.260,-0.100,0.170,0.330
'0:00.104',-0.240,-0.090,0.170,0.310
'0:00.106',-0.220,-0.090,0.170,0.310
'0:00.108',-0.220,-0.080,0.180,0.310
'0:00.110',-0.220,-0.070,0.190,0.300
'0:00.112',-0.210,-0.070,0.180,0.290
'0:00.114',-0.220,-0.070,0.170,0.290
'0:00.116',-0.230,-0.080,0.160,0.300
'0:00.118',-0.230,-0.100,0.160,0.300
'0:00.120',-0.230,-0.110,0.160,0.300
'0:00.122',-0.230,-0.090,0.170,0.280
'0:00.124',-0.210,-0.090,0.170,0.270
'0:00.126',-0.190,-0.090,0.140,0.260
'0:00.128',-0.190,-0.100,0.130,0.250
'0:00.130',-0.200,-0.110,0.120,0.240
'0:00.132',-0.200,-0.120,0.120,0.240
'0:00.134',-0.210,-0.110,0.120,0.250
'0:00.136',-0.220,-0.080,0.130,0.270
'0:00.138',-0.210,-0.080,0.120,0.240
'0:00.140',-0.190,-0.080,0.100,0.220
'0:00.142',-0.180,-0.090,0.100,0.220
'0:00.144',-0.190,-0.090,0.100,0.230
'0:00.146',-0.200,-0.080,0.110,0.250
'0:00.148',-0.210,-0.060,0.110,0.270
'0:00.150',-0.220,-0.050,0.100,0.280
'0:00.152',-0.200,-0.060,0.090,0.270
'0:00.154',-0.190,-0.060,0.080,0.240
'0:00.156',-0.170,-0.050,0.070,0.210
'0:00.158',-0.160,-0.050,0.070,0.210
'0:00.160',-0.150,-0.050,0.080,0.200
'0:00.162',-0.170,-0.040,0.090,0.200
'0:00.164',-0.180,-0.030,0.100,0.210
'0:00.166',-0.180,-0.030,0.110,0.210
'0:00.168',-0.160,-0.030,0.100,0.210
'0:00.170',-0.140,-0.030,0.090,0.180
'0:00.172',-0.120,-0.040,0.090,0.150
'0:00.174',-0.100,-0.050,0.090,0.140
'0:00.176',-0.080,-0.050,0.110,0.160
'0:00.178',-0.090,-0.040,0.120,0.180
'0:00.180',-0.090,-0.040,0.120,0.200
'0:00.182',-0.100,-0.020,0.120,0.210
'0:00.184',-0.100,-0.010,0.120,0.210
'0:00.186',-0.090,-0.010,0.120,0.200
'0:00.188',-0.080,-0.010,0.100,0.170
'0:00.190',-0.060,-0.010,0.090,0.160
'0:00.192',-0.060,0.000,0.090,0.170
'0:00.194',-0.040,0.000,0.100,0.190
'0:00.196',-0.050,-0.010,0.100,0.190
'0:00.198',-0.060,-0.010,0.110,0.180
'0:00.200',-0.050,0.000,0.110,0.180
'0:00.202',-0.040,0.010,0.100,0.180
'0:00.204',-0.040,0.000,0.090,0.150
'0:00.206',-0.040,0.020,0.090,0.140
'0:00.208',-0.040,0.010,0.090,0.130
'0:00.210',-0.040,0.010,0.100,0.130
'0:00.212',-0.050,0.010,0.100,0.140
'0:00.214',-0.050,0.010,0.100,0.150
'0:00.216',-0.050,0.020,0.110,0.170
'0:00.218',-0.060,0.020,0.120,0.160
'0:00.220',-0.070,0.040,0.120,0.150
'0:00.222',-0.060,0.030,0.120,0.130
'0:00.224',-0.040,0.030,0.120,0.120
'0:00.226',-0.040,0.020,0.110,0.120
'0:00.228',-0.030,0.020,0.110,0.120
'0:00.230',-0.040,0.030,0.110,0.130
'0:00.232',-0.050,0.030,0.120,0.140
'0:00.234',-0.050,0.050,0.130,0.170
'0:00.236',-0.040,0.050,0.120,0.180
'0:00.238',-0.020,0.050,0.110,0.150
'0:00.240',0.000,0.040,0.100,0.120
'0:00.242',0.000,0.030,0.100,0.110
'0:00.244',0.010,0.020,0.100,0.120
'0:00.246',0.000,0.030,0.100,0.130
'0:00.248',0.000,0.040,0.100,0.150
'0:00.250',0.000,0.060,0.110,0.150
'0:00.252',0.020,0.050,0.110,0.130
'0:00.254',0.020,0.060,0.100,0.100
'0:00.256',0.030,0.060,0.100,0.090
'0:00.258',0.040,0.050,0.100,0.080
'0:00.260',0.040,0.040,0.100,0.080
'0:00.262',0.020,0.060,0.110,0.100
'0:00.264',0.010,0.060,0.110,0.120
'0:00.266',0.020,0.050,0.100,0.120
'0:00.268',0.030,0.030,0.100,0.100
'0:00.270',0.040,0.020,0.100,0.070
'0:00.272',0.050,0.010,0.110,0.040
'0:00.274',0.060,0.010,0.110,0.040
'0:00.276',0.050,0.030,0.110,0.050
'0:00.278',0.030,0.040,0.120,0.070
'0:00.280',0.010,0.050,0.110,0.080
'0:00.282',0.000,0.050,0.120,0.090
'0:00.284',0.010,0.040,0.120,0.090
'0:00.286',0.020,0.040,0.110,0.080
'0:00.288',0.020,0.040,0.110,0.060
'0:00.290',0.030,0.050,0.110,0.060
'0:00.292',0.040,0.040,0.100,0.070
'0:00.294',0.050,0.030,0.090,0.070
'0:00.296',0.040,0.020,0.090,0.090
'0:00.298',0.030,0.010,0.100,0.100
'0:00.300',0.020,0.020,0.100,0.100
'0:00.302',0.020,0.020,0.100,0.100
'0:00.304',0.010,0.030,0.100,0.090
'0:00.306',0.020,0.020,0.100,0.080
'0:00.308',0.040,0.030,0.080,0.070
'0:00.310',0.060,0.030,0.070,0.070
'0:00.312',0.060,0.030,0.080,0.070
'0:00.314',0.050,0.030,0.090,0.080
'0:00.316',0.040,0.030,0.090,0.080
'0:00.318',0.030,0.040,0.090,0.090
'0:00.320',0.020,0.040,0.090,0.080
'0:00.322',0.030,0.020,0.060,0.050
'0:00.324',0.050,0.010,0.050,0.030
'0:00.326',0.050,0.010,0.040,0.020
'0:00.328',0.040,0.000,0.030,0.020
'0:00.330',0.020,0.000,0.040,0.020
'0:00.332',0.000,0.010,0.050,0.050
'0:00.334',0.000,0.010,0.050,0.060
'0:00.336',0.000,0.000,0.040,0.040
'0:00.338',0.010,0.000,0.040,0.030
'0:00.340',0.020,0.000,0.030,0.020
'0:00.342',0.020,-0.010,0.030,0.030
'0:00.344',0.010,-0.010,0.030,0.040
'0:00.346',-0.010,0.010,0.050,0.060
'0:00.348',-0.020,0.020,0.060,0.070
'0:00.350',-0.020,0.010,0.060,0.070
'0:00.352',-0.020,0.000,0.060,0.050
'0:00.354',-0.010,-0.020,0.060,0.030
'0:00.356',0.000,-0.030,0.050,0.040
'0:00.358',0.000,-0.030,0.040,0.050
'0:00.360',0.000,-0.010,0.050,0.090
'0:00.362',-0.020,0.000,0.070,0.130
'0:00.364',-0.030,0.000,0.080,0.130
'0:00.366',-0.020,0.000,0.080,0.140
'0:00.368',0.000,-0.010,0.100,0.130
'0:00.370',0.000,-0.020,0.100,0.110
'0:00.372',0.000,-0.010,0.100,0.100
'0:00.374',0.000,0.000,0.100,0.100
'0:00.376',0.010,0.010,0.110,0.110
'0:00.378',0.000,0.010,0.120,0.120
'0:00.380',-0.010,0.000,0.120,0.120
'0:00.382',-0.020,0.010,0.120,0.120
'0:00.384',-0.010,0.020,0.120,0.110
'0:00.386',0.000,0.020,0.110,0.090
'0:00.388',0.010,0.040,0.110,0.080
'0:00.390',0.020,0.040,0.100,0.080
'0:00.392',0.020,0.030,0.090,0.070
'0:00.394',0.020,0.010,0.080,0.070
'0:00.396',0.030,0.010,0.090,0.080
'0:00.398',0.030,0.010,0.090,0.070
'0:00.400',0.030,0.010,0.090,0.060
'0:00.402',0.020,0.020,0.090,0.070
'0:00.404',0.020,0.040,0.090,0.070
'0:00.406',0.040,0.050,0.080,0.050
'0:00.408',0.050,0.030,0.080,0.040
'0:00.410',0.070,0.020,0.080,0.020
'0:00.412',0.060,0.030,0.070,0.010
'0:00.414',0.060,0.040,0.060,0.010
'0:00.416',0.070,0.060,0.060,0.020
'0:00.418',0.070,0.060,0.060,0.030
'0:00.420',0.080,0.040,0.050,0.010
'0:00.422',0.090,0.040,0.050,0.000
'0:00.424',0.100,0.040,0.050,0.000
'0:00.426',0.100,0.040,0.050,0.000
'0:00.428',0.090,0.040,0.050,0.000
'0:00.430',0.070,0.050,0.060,0.020
'0:00.432',0.070,0.060,0.060,0.030
'0:00.434',0.070,0.060,0.050,0.020
'0:00.436',0.090,0.060,0.050,0.000
'0:00.438',0.110,0.060,0.040,-0.010
'0:00.440',0.120,0.060,0.030,-0.030
'0:00.442',0.110,0.050,0.040,-0.030
'0:00.444',0.100,0.070,0.060,-0.020
'0:00.446',0.070,0.090,0.090,0.010
'0:00.448',0.060,0.090,0.090,0.020
'0:00.450',0.070,0.070,0.070,0.020
'0:00.452',0.090,0.050,0.050,-0.010
'0:00.454',0.130,0.030,0.010,-0.070
'0:00.456',0.160,0.020,-0.050,-0.140
'0:00.458',0.180,0.020,-0.110,-0.180
'0:00.460',0.190,0.000,-0.170,-0.220
'0:00.462',0.200,-0.020,-0.230,-0.260
'0:00.464',0.190,-0.030,-0.220,-0.250
'0:00.466',0.200,0.000,-0.120,-0.190
'0:00.468',0.230,0.090,0.060,-0.080
'0:00.470',0.260,0.250,0.350,0.090
'0:00.472',0.290,0.500,0.750,0.330
'0:00.474',0.380,0.840,1.230,0.580
'0:00.476',0.510,1.250,1.770,0.850
'0:00.478',0.650,1.710,2.350,1.140
'0:00.480',0.790,2.210,2.980,1.470
'0:00.482',0.920,2.740,3.620,1.810
'0:00.484',1.050,3.270,4.250,2.150
'0:00.486',1.160,3.790,4.860,2.480
'0:00.488',1.250,4.260,5.370,2.770
'0:00.490',1.310,4.590,5.710,2.950
'0:00.492',1.320,4.770,5.880,3.050
'0:00.494',1.290,4.790,5.880,3.090
'0:00.496',1.170,4.640,5.680,3.040
'0:00.498',0.970,4.260,5.230,2.880
'0:00.500',0.690,3.660,4.560,2.630
'0:00.502',0.430,2.980,3.780,2.300
'0:00.504',0.230,2.310,3.040,1.920
'0:00.506',0.100,1.740,2.360,1.570
'0:00.508',0.030,1.270,1.770,1.230
'0:00.510',-0.010,0.870,1.260,0.910
'0:00.512',-0.050,0.530,0.820,0.640
'0:00.514',-0.090,0.250,0.450,0.420
'0:00.516',-0.100,0.030,0.150,0.240
'0:00.518',-0.110,-0.160,-0.110,0.060
'0:00.520',-0.120,-0.320,-0.330,-0.100
'0:00.522',-0.120,-0.460,-0.520,-0.240
'0:00.524',-0.120,-0.580,-0.670,-0.360
'0:00.526',-0.130,-0.680,-0.790,-0.440
'0:00.528',-0.130,-0.750,-0.880,-0.500
'0:00.530',-0.150,-0.790,-0.960,-0.530
'0:00.532',-0.140,-0.840,-1.010,-0.560
'0:00.534',-0.120,-0.880,-1.070,-0.610
'0:00.536',-0.100,-0.900,-1.100,-0.660
'0:00.538',-0.090,-0.920,-1.130,-0.700
'0:00.540',-0.080,-0.940,-1.150,-0.730
'0:00.542',-0.070,-0.930,-1.150,-0.740
'0:00.544',-0.080,-0.910,-1.160,-0.750
'0:00.546',-0.090,-0.910,-1.150,-0.750
'0:00.548',-0.090,-0.920,-1.140,-0.740
'0:00.550',-0.080,-0.910,-1.160,-0.730
'0:00.552',-0.080,-0.900,-1.170,-0.740
'0:00.554',-0.050,-0.890,-1.160,-0.750
'0:00.556',-0.030,-0.880,-1.150,-0.760
'0:00.558',-0.030,-0.850,-1.130,-0.740
'0:00.560',-0.010,-0.840,-1.100,-0.720
'0:00.562',-0.010,-0.830,-1.070,-0.720
'0:00.564',-0.020,-0.810,-1.050,-0.710
'0:00.566',-0.020,-0.800,-1.040,-0.700
'0:00.568',-0.010,-0.770,-1.030,-0.700
'0:00.570',0.000,-0.750,-1.010,-0.700
'0:00.572',0.000,-0.710,-0.970,-0.680
'0:00.574',0.010,-0.690,-0.960,-0.680
'0:00.576',0.030,-0.680,-0.950,-0.670
'0:00.578',0.030,-0.690,-0.940,-0.650
'0:00.580',0.030,-0.680,-0.920,-0.620
'0:00.582',0.020,-0.670,-0.910,-0.610
'0:00.584',0.010,-0.640,-0.900,-0.600
'0:00.586',0.010,-0.610,-0.880,-0.600
'0:00.588',0.020,-0.600,-0.870,-0.610
'0:00.590',0.030,-0.600,-0.850,-0.610
'0:00.592',0.040,-0.600,-0.830,-0.600
'0:00.594',0.030,-0.590,-0.820,-0.580
'0:00.596',0.020,-0.570,-0.800,-0.570
'0:00.598',0.010,-0.550,-0.780,-0.550
'0:00.600',0.000,-0.510,-0.740,-0.520
'0:00.602',0.010,-0.490,-0.720,-0.510
'0:00.604',0.030,-0.490,-0.720,-0.530
'0:00.606',0.050,-0.480,-0.730,-0.540
'0:00.608',0.060,-0.480,-0.730,-0.550
'0:00.610',0.070,-0.480,-0.720,-0.550
'0:00.612',0.070,-0.470,-0.710,-0.540
'0:00.614',0.040,-0.450,-0.690,-0.530
'0:00.616',0.050,-0.420,-0.680,-0.510
'0:00.618',0.060,-0.400,-0.680,-0.520
'0:00.620',0.080,-0.390,-0.680,-0.530
'0:00.622',0.090,-0.380,-0.670,-0.540
'0:00.624',0.100,-0.370,-0.670,-0.540
'0:00.626',0.100,-0.350,-0.660,-0.540
'0:00.628',0.090,-0.330,-0.640,-0.530
'0:00.630',0.080,-0.330,-0.630,-0.520
'0:00.632',0.100,-0.330,-0.630,-0.510
'0:00.634',0.120,-0.310,-0.630,-0.500
'0:00.636',0.140,-0.290,-0.630,-0.510
'0:00.638',0.160,-0.280,-0.630,-0.550
'0:00.640',0.180,-0.270,-0.640,-0.570
'0:00.642',0.180,-0.240,-0.630,-0.560
'0:00.644',0.180,-0.230,-0.620,-0.550
'0:00.646',0.190,-0.220,-0.620,-0.550
'0:00.648',0.200,-0.200,-0.610,-0.560
'0:00.650',0.220,-0.190,-0.600,-0.560
'0:00.652',0.230,-0.190,-0.610,-0.580
'0:00.654',0.240,-0.190,-0.620,-0.610
'0:00.656',0.260,-0.170,-0.610,-0.620
'0:00.658',0.290,-0.170,-0.600,-0.620
'0:00.660',0.300,-0.170,-0.600,-0.630
'0:00.662',0.310,-0.160,-0.600,-0.630
'0:00.664',0.310,-0.140,-0.590,-0.630
'0:00.666',0.330,-0.110,-0.590,-0.630
'0:00.668',0.360,-0.090,-0.580,-0.640
'0:00.670',0.370,-0.060,-0.580,-0.650
'0:00.672',0.380,-0.050,-0.580,-0.670
'0:00.674',0.410,-0.040,-0.580,-0.670
'0:00.676',0.420,-0.050,-0.560,-0.660
'0:00.678',0.410,-0.050,-0.550,-0.660
'0:00.680',0.400,-0.030,-0.540,-0.650
'0:00.682',0.400,-0.020,-0.540,-0.650
'0:00.684',0.390,-0.010,-0.540,-0.640
'0:00.686',0.400,0.000,-0.540,-0.650
'0:00.688',0.420,0.000,-0.540,-0.670
'0:00.690',0.430,-0.010,-0.540,-0.680
'0:00.692',0.430,-0.020,-0.530,-0.660
'0:00.694',0.410,-0.030,-0.510,-0.640
'0:00.696',0.390,-0.020,-0.500,-0.620
'0:00.698',0.380,-0.010,-0.490,-0.580
'0:00.700',0.390,-0.010,-0.470,-0.550
'0:00.702',0.380,-0.030,-0.460,-0.540
'0:00.704',0.370,-0.030,-0.450,-0.530
'0:00.706',0.360,-0.030,-0.450,-0.530
'0:00.708',0.340,-0.040,-0.430,-0.500
'0:00.710',0.320,-0.040,-0.390,-0.470
'0:00.712',0.280,-0.040,-0.370,-0.420
'0:00.714',0.230,-0.040,-0.340,-0.370
'0:00.716',0.190,-0.060,-0.310,-0.340
'0:00.718',0.160,-0.080,-0.280,-0.310
'0:00.720',0.140,-0.090,-0.270,-0.300
'0:00.722',0.110,-0.090,-0.240,-0.270
'0:00.724',0.090,-0.100,-0.220,-0.240
'0:00.726',0.040,-0.090,-0.180,-0.170
'0:00.728',0.000,-0.080,-0.150,-0.110
'0:00.730',-0.040,-0.090,-0.130,-0.070
'0:00.732',-0.070,-0.100,-0.120,-0.030
'0:00.734',-0.100,-0.110,-0.100,0.000
'0:00.736',-0.130,-0.120,-0.070,0.010
'0:00.738',-0.140,-0.130,-0.060,0.020
'0:00.740',-0.160,-0.110,-0.050,0.060
'0:00.742',-0.170,-0.100,-0.020,0.110
'0:00.744',-0.190,-0.120,0.010,0.140
'0:00.746',-0.210,-0.130,0.030,0.170
'0:00.748',-0.230,-0.130,0.040,0.210
'0:00.750',-0.240,-0.140,0.060,0.240
'0:00.752',-0.260,-0.130,0.080,0.270
'0:00.754',-0.270,-0.120,0.090,0.280
'0:00.756',-0.280,-0.110,0.100,0.280
'0:00.758',-0.280,-0.120,0.100,0.290
'0:00.760',-0.290,-0.130,0.120,0.310
'0:00.762',-0.310,-0.120,0.140,0.320
'0:00.764',-0.330,-0.100,0.160,0.330
'0:00.766',-0.330,-0.100,0.170,0.340
'0:00.768',-0.330,-0.070,0.180,0.370
'0:00.770',-0.340,-0.060,0.200,0.360
'0:00.772',-0.330,-0.070,0.200,0.340
'0:00.774',-0.320,-0.080,0.200,0.330
'0:00.776',-0.310,-0.090,0.200,0.330
'0:00.778',-0.310,-0.100,0.200,0.340
'0:00.780',-0.320,-0.090,0.210,0.340
'0:00.782',-0.330,-0.060,0.210,0.370
'0:00.784',-0.330,-0.050,0.190,0.370
'0:00.786',-0.310,-0.070,0.180,0.360
'0:00.788',-0.300,-0.070,0.160,0.340
'0:00.790',-0.290,-0.080,0.150,0.330
'0:00.792',-0.280,-0.090,0.150,0.320
'0:00.794',-0.280,-0.090,0.150,0.310
'0:00.796',-0.290,-0.070,0.160,0.320
'0:00.798',-0.290,-0.050,0.160,0.340
'0:00.800',-0.300,-0.050,0.170,0.340
'0:00.802',-0.300,-0.060,0.170,0.330
'0:00.804',-0.280,-0.060,0.170,0.290
'0:00.806',-0.270,-0.060,0.160,0.270
'0:00.808',-0.260,-0.060,0.160,0.260
'0:00.810',-0.260,-0.060,0.180,0.280
'0:00.812',-0.270,-0.050,0.190,0.310
'0:00.814',-0.260,-0.050,0.190,0.320
'0:00.816',-0.260,-0.050,0.190,0.310
'0:00.818',-0.250,-0.050,0.200,0.300
'0:00.820',-0.240,-0.060,0.190,0.280
'0:00.822',-0.220,-0.060,0.180,0.250
'0:00.824',-0.220,-0.050,0.170,0.240
'0:00.826',-0.220,-0.040,0.160,0.240
'0:00.828',-0.220,-0.040,0.170,0.250
'0:00.830',-0.230,-0.040,0.170,0.260
'0:00.832',-0.230,-0.050,0.170,0.260
'0:00.834',-0.230,-0.050,0.170,0.260
'0:00.836',-0.220,-0.050,0.160,0.250
'0:00.838',-0.200,-0.030,0.160,0.240
'0:00.840',-0.190,-0.020,0.170,0.240
'0:00.842',-0.180,-0.020,0.170,0.220
'0:00.844',-0.180,-0.020,0.160,0.210
'0:00.846',-0.180,-0.020,0.160,0.220
'0:00.848',-0.190,-0.020,0.160,0.230
'0:00.850',-0.190,-0.010,0.150,0.230
'0:00.852',-0.190,0.000,0.140,0.230
'0:00.854',-0.180,-0.010,0.140,0.220
'0:00.856',-0.160,-0.020,0.130,0.200
'0:00.858',-0.130,-0.010,0.130,0.200
'0:00.860',-0.130,0.000,0.140,0.190
'0:00.862',-0.150,0.000,0.140,0.200
'0:00.864',-0.180,0.000,0.150,0.220
'0:00.866',-0.180,0.010,0.150,0.240
'0:00.868',-0.180,0.040,0.150,0.250
'0:00.870',-0.170,0.050,0.140,0.230
'0:00.872',-0.150,0.040,0.120,0.210
'0:00.874',-0.140,0.030,0.130,0.200
'0:00.876',-0.110,0.020,0.140,0.190
'0:00.878',-0.110,0.010,0.160,0.190
'0:00.880',-0.130,0.020,0.170,0.200
'0:00.882',-0.130,0.040,0.170,0.220
'0:00.884',-0.130,0.060,0.180,0.220
'0:00.886',-0.120,0.070,0.170,0.200
'0:00.888',-0.100,0.070,0.150,0.180
'0:00.890',-0.080,0.050,0.150,0.160
'0:00.892',-0.070,0.040,0.140,0.160
'0:00.894',-0.070,0.040,0.130,0.180
'0:00.896',-0.090,0.040,0.110,0.190
'0:00.898',-0.100,0.040,0.110,0.190
'0:00.900',-0.080,0.050,0.120,0.180
'0:00.902',-0.060,0.050,0.130,0.170
'0:00.904',-0.040,0.050,0.130,0.150
'0:00.906',-0.010,0.040,0.130,0.130
'0:00.908',-0.020,0.050,0.130,0.130
'0:00.910',-0.030,0.050,0.120,0.140
'0:00.912',-0.040,0.050,0.130,0.130
'0:00.914',-0.050,0.050,0.140,0.130
'0:00.916',-0.050,0.050,0.150,0.140
'0:00.918',-0.030,0.040,0.150,0.140
'0:00.920',-0.020,0.040,0.140,0.130
'0:00.922',-0.010,0.060,0.120,0.120
'0:00.924',-0.020,0.060,0.120,0.130
'0:00.926',-0.020,0.050,0.120,0.120
'0:00.928',-0.020,0.040,0.120,0.120
'0:00.930',-0.020,0.030,0.120,0.130
'0:00.932',-0.020,0.030,0.120,0.130
'0:00.934',-0.020,0.040,0.130,0.140
'0:00.936',-0.010,0.060,0.140,0.130
'0:00.938',0.000,0.080,0.150,0.120
'0:00.940',0.000,0.070,0.150,0.110
'0:00.942',0.000,0.070,0.150,0.110
'0:00.944',0.010,0.060,0.140,0.110
'0:00.946',0.000,0.060,0.140,0.100
'0:00.948',0.000,0.060,0.140,0.100
'0:00.950',0.000,0.080,0.140,0.110
'0:00.952',-0.010,0.100,0.120,0.120
'0:00.954',-0.010,0.100,0.110,0.100
'0:00.956',0.000,0.080,0.100,0.090
'0:00.958',0.010,0.060,0.090,0.090
'0:00.960',0.010,0.050,0.100,0.100
'0:00.962',0.000,0.040,0.100,0.100
'0:00.964',-0.020,0.050,0.110,0.120
'0:00.966',-0.030,0.070,0.120,0.140
'0:00.968',-0.030,0.080,0.130,0.140
'0:00.970',-0.030,0.080,0.130,0.120
'0:00.972',-0.020,0.070,0.130,0.100
'0:00.974',-0.010,0.060,0.130,0.090
'0:00.976',-0.010,0.040,0.130,0.080
'0:00.978',-0.020,0.040,0.120,0.090
'0:00.980',-0.040,0.060,0.120,0.120
'0:00.982',-0.040,0.070,0.120,0.120
'0:00.984',-0.040,0.060,0.110,0.120
'0:00.986',-0.040,0.060,0.100,0.110
'0:00.988',-0.030,0.060,0.090,0.080
'0:00.990',-0.020,0.050,0.080,0.070
'0:00.992',-0.010,0.050,0.080,0.080
'0:00.994',-0.030,0.070,0.090,0.100
'0:00.996',-0.040,0.080,0.090,0.100
'0:00.998',-0.050,0.070,0.100,0.100
'0:01.000',-0.050,0.070,0.110,0.110
'0:01.002',-0.040,0.060,0.110,0.110
'0:01.004',-0.030,0.050,0.110,0.090
'0:01.006',-0.020,0.050,0.100,0.070
'0:01.008',-0.010,0.070,0.100,0.080
'0:01.010',-0.010,0.060,0.100,0.080
'0:01.012',-0.020,0.060,0.090,0.080
'0:01.014',-0.030,0.060,0.100,0.090
'0:01.016',-0.020,0.060,0.110,0.110
'0:01.018',-0.010,0.050,0.120,0.100
'0:01.020',0.000,0.050,0.100,0.070
'0:01.022',0.000,0.060,0.100,0.060
'0:01.024',0.000,0.060,0.090,0.070
'0:01.026',0.000,0.050,0.080,0.060
'0:01.028',0.020,0.040,0.060,0.050
'0:01.030',0.000,0.040,0.060,0.070
'0:01.032',-0.020,0.050,0.060,0.090
'0:01.034',-0.020,0.050,0.060,0.090
'0:01.036',-0.020,0.040,0.050,0.080
'0:01.038',-0.010,0.030,0.040,0.060
'0:01.040',0.000,0.020,0.040,0.060
'0:01.042',0.000,0.000,0.030,0.070
'0:01.044',0.000,0.000,0.030,0.070
'0:01.046',-0.020,-0.010,0.040,0.070
'0:01.048',-0.040,-0.010,0.040,0.080
'0:01.050',-0.050,0.010,0.030,0.110
'0:01.052',-0.040,0.010,0.030,0.100
'0:01.054',-0.030,0.000,0.030,0.080
'0:01.056',-0.020,0.010,0.030,0.070
'0:01.058',-0.010,0.010,0.030,0.070
'0:01.060',0.000,0.000,0.030,0.080
'0:01.062',-0.010,0.000,0.040,0.090
'0:01.064',-0.050,0.010,0.060,0.130
'0:01.066',-0.060,0.010,0.070,0.150
'0:01.068',-0.040,0.000,0.070,0.130
'0:01.070',-0.040,-0.010,0.070,0.110
'0:01.072',-0.040,0.000,0.080,0.090
'0:01.074',-0.040,0.030,0.090,0.090
'0:01.076',-0.030,0.030,0.110,0.100
'0:01.078',-0.030,0.040,0.110,0.110
'0:01.080',-0.040,0.050,0.120,0.130
'0:01.082',-0.050,0.060,0.140,0.140
'0:01.084',-0.050,0.040,0.150,0.130
'0:01.086',-0.040,0.030,0.140,0.110
'0:01.088',-0.040,0.030,0.120,0.100
'0:01.090',-0.040,0.040,0.120,0.100
'0:01.092',-0.050,0.050,0.130,0.130
'0:01.094',-0.050,0.030,0.120,0.140
'0:01.096',-0.040,0.020,0.110,0.130
'0:01.098',-0.040,0.020,0.110,0.140
'0:01.100',-0.040,0.020,0.110,0.130
'0:01.102',-0.030,0.000,0.090,0.100
'0:01.104',-0.020,0.000,0.080,0.070
'0:01.106',-0.020,0.010,0.080,0.060
'0:01.108',-0.010,0.020,0.080,0.060
'0:01.110',0.000,0.020,0.080,0.060
'0:01.112',0.010,0.020,0.080,0.060
'0:01.114',0.020,0.030,0.070,0.070
'0:01.116',0.020,0.030,0.070,0.080
'0:01.118',0.040,0.020,0.070,0.050
'0:01.120',0.050,0.040,0.070,0.040
'0:01.122',0.050,0.050,0.070,0.030
'0:01.124',0.050,0.060,0.080,0.020
'0:01.126',0.070,0.050,0.070,0.010
'0:01.128',0.080,0.040,0.060,0.000
'0:01.130',0.070,0.050,0.070,0.000
'0:01.132',0.060,0.050,0.080,0.020
'0:01.134',0.060,0.070,0.090,0.040
'0:01.136',0.060,0.070,0.080,0.040
'0:01.138',0.080,0.070,0.060,0.020
'0:01.140',0.090,0.060,0.050,0.000
'0:01.142',0.100,0.050,0.050,0.010
'0:01.144',0.100,0.040,0.050,0.010
'0:01.146',0.090,0.040,0.050,0.020
'0:01.148',0.070,0.060,0.050,0.040
'0:01.150',0.060,0.060,0.050,0.050
'0:01.152',0.070,0.040,0.020,0.030
'0:01.154',0.080,0.020,-0.020,-0.030
'0:01.156',0.110,0.010,-0.070,-0.100
'0:01.158',0.140,0.000,-0.130,-0.160
'0:01.160',0.170,-0.030,-0.200,-0.220
'0:01.162',0.170,-0.030,-0.240,-0.250
'0:01.164',0.170,-0.010,-0.220,-0.240
'0:01.166',0.180,0.040,-0.090,-0.180
'0:01.168',0.210,0.150,0.120,-0.040
'0:01.170',0.230,0.330,0.440,0.150
'0:01.172',0.270,0.580,0.860,0.380
'0:01.174',0.370,0.960,1.350,0.640
'0:01.176',0.490,1.410,1.920,0.920
'0:01.178',0.610,1.890,2.520,1.230
'0:01.180',0.730,2.380,3.140,1.560
'0:01.182',0.850,2.900,3.780,1.910
'0:01.184',0.970,3.420,4.400,2.270
'0:01.186',1.070,3.920,4.980,2.590
'0:01.188',1.170,4.340,5.430,2.830
'0:01.190',1.210,4.630,5.680,3.000
'0:01.192',1.210,4.750,5.760,3.060
'0:01.194',1.150,4.700,5.660,3.060
'0:01.196',1.010,4.440,5.340,2.950
'0:01.198',0.760,3.920,4.790,2.760
'0:01.200',0.460,3.250,4.060,2.500
'0:01.202',0.220,2.570,3.300,2.160
'0:01.204',0.050,1.980,2.610,1.810
'0:01.206',-0.030,1.490,2.000,1.460
'0:01.208',-0.080,1.070,1.460,1.130
'0:01.210',-0.100,0.710,1.010,0.850
'0:01.212',-0.140,0.410,0.630,0.600
'0:01.214',-0.160,0.170,0.300,0.380
'0:01.216',-0.160,-0.030,0.020,0.190
'0:01.218',-0.160,-0.190,-0.210,0.030
'0:01.220',-0.160,-0.330,-0.430,-0.110
'0:01.222',-0.150,-0.470,-0.600,-0.250
'0:01.224',-0.150,-0.580,-0.720,-0.360
'0:01.226',-0.140,-0.670,-0.820,-0.430
'0:01.228',-0.140,-0.730,-0.910,-0.490
'0:01.230',-0.150,-0.780,-0.970,-0.540
'0:01.232',-0.150,-0.790,-1.020,-0.560
'0:01.234',-0.170,-0.810,-1.060,-0.580
'0:01.236',-0.140,-0.830,-1.100,-0.630
'0:01.238',-0.110,-0.850,-1.140,-0.670
'0:01.240',-0.090,-0.860,-1.160,-0.690
'0:01.242',-0.070,-0.870,-1.170,-0.710
'0:01.244',-0.070,-0.870,-1.170,-0.720
'0:01.246',-0.090,-0.840,-1.170,-0.700
'0:01.248',-0.100,-0.810,-1.160,-0.680
'0:01.250',-0.090,-0.800,-1.140,-0.670
'0:01.252',-0.080,-0.790,-1.110,-0.680
'0:01.254',-0.060,-0.780,-1.090,-0.710
'0:01.256',-0.050,-0.770,-1.080,-0.720
'0:01.258',-0.030,-0.760,-1.060,-0.710
'0:01.260',-0.040,-0.730,-1.050,-0.680
'0:01.262',-0.050,-0.700,-1.030,-0.660
'0:01.264',-0.050,-0.700,-1.010,-0.650
'0:01.266',-0.050,-0.690,-0.980,-0.650
'0:01.268',-0.030,-0.680,-0.960,-0.640
'0:01.270',-0.010,-0.670,-0.960,-0.650
'0:01.272',0.010,-0.660,-0.940,-0.660
'0:01.274',0.000,-0.630,-0.910,-0.640
'0:01.276',-0.020,-0.600,-0.890,-0.600
'0:01.278',-0.040,-0.600,-0.870,-0.590
'0:01.280',-0.040,-0.590,-0.860,-0.580
'0:01.282',-0.040,-0.580,-0.860,-0.570
'0:01.284',-0.030,-0.570,-0.860,-0.560
'0:01.286',-0.020,-0.560,-0.860,-0.560
'0:01.288',-0.010,-0.530,-0.860,-0.560
'0:01.290',0.000,-0.510,-0.850,-0.560
'0:01.292',0.030,-0.510,-0.830,-0.570
'0:01.294',0.030,-0.510,-0.820,-0.570
'0:01.296',0.020,-0.500,-0.790,-0.560
'0:01.298',0.010,-0.490,-0.770,-0.550
'0:01.300',0.030,-0.480,-0.770,-0.540
'0:01.302',0.040,-0.440,-0.760,-0.520
'0:01.304',0.050,-0.420,-0.740,-0.510
'0:01.306',0.060,-0.420,-0.730,-0.520
'0:01.308',0.070,-0.430,-0.720,-0.520
'0:01.310',0.080,-0.430,-0.710,-0.530
'0:01.312',0.080,-0.420,-0.710,-0.520
'0:01.314',0.060,-0.410,-0.710,-0.510
'0:01.316',0.060,-0.390,-0.690,-0.490
'0:01.318',0.060,-0.380,-0.670,-0.480
'0:01.320',0.060,-0.380,-0.670,-0.500
'0:01.322',0.070,-0.370,-0.670,-0.530
'0:01.324',0.080,-0.370,-0.660,-0.550
'0:01.326',0.100,-0.360,-0.660,-0.560
'0:01.328',0.100,-0.350,-0.660,-0.540
'0:01.330',0.090,-0.320,-0.650,-0.530
'0:01.332',0.090,-0.290,-0.640,-0.500
'0:01.334',0.100,-0.270,-0.640,-0.500
'0:01.336',0.110,-0.260,-0.650,-0.530
'0:01.338',0.130,-0.260,-0.650,-0.570
'0:01.340',0.160,-0.270,-0.660,-0.580
'0:01.342',0.190,-0.280,-0.660,-0.590
'0:01.344',0.190,-0.260,-0.650,-0.590
'0:01.346',0.180,-0.220,-0.640,-0.560
'0:01.348',0.190,-0.200,-0.630,-0.540
'0:01.350',0.210,-0.180,-0.620,-0.540
'0:01.352',0.230,-0.180,-0.620,-0.560
'0:01.354',0.240,-0.170,-0.650,-0.600
'0:01.356',0.260,-0.170,-0.660,-0.620
'0:01.358',0.280,-0.150,-0.660,-0.610
'0:01.360',0.280,-0.130,-0.650,-0.600
'0:01.362',0.280,-0.120,-0.640,-0.600
'0:01.364',0.280,-0.110,-0.620,-0.600
'0:01.366',0.300,-0.090,-0.610,-0.620
'0:01.368',0.320,-0.090,-0.600,-0.640
'0:01.370',0.330,-0.090,-0.590,-0.660
'0:01.372',0.360,-0.070,-0.590,-0.660
'0:01.374',0.370,-0.050,-0.580,-0.650
'0:01.376',0.380,-0.040,-0.580,-0.640
'0:01.378',0.390,-0.040,-0.570,-0.630
'0:01.380',0.380,-0.040,-0.560,-0.620
'0:01.382',0.380,-0.030,-0.550,-0.610
'0:01.384',0.390,-0.020,-0.540,-0.610
'0:01.386',0.400,-0.020,-0.540,-0.620
'0:01.388',0.400,-0.010,-0.540,-0.620
'0:01.390',0.400,-0.010,-0.530,-0.620
'0:01.392',0.410,-0.020,-0.530,-0.620
'0:01.394',0.410,-0.030,-0.510,-0.590
'0:01.396',0.390,-0.040,-0.500,-0.560
'0:01.398',0.380,-0.040,-0.480,-0.550
'0:01.400',0.370,-0.040,-0.470,-0.520
'0:01.402',0.350,-0.040,-0.470,-0.490
'0:01.404',0.340,-0.060,-0.480,-0.500
'0:01.406',0.320,-0.080,-0.470,-0.510
'0:01.408',0.300,-0.100,-0.450,-0.490
'0:01.410',0.280,-0.100,-0.430,-0.460
'0:01.412',0.250,-0.110,-0.410,-0.430
'0:01.414',0.210,-0.110,-0.380,-0.380
'0:01.416',0.180,-0.090,-0.360,-0.320
'0:01.418',0.170,-0.090,-0.340,-0.290
'0:01.420',0.160,-0.100,-0.330,-0.270
'0:01.422',0.130,-0.110,-0.310,-0.250
'0:01.424',0.090,-0.130,-0.280,-0.220
'0:01.426',0.060,-0.140,-0.250,-0.170
'0:01.428',0.020,-0.140,-0.210,-0.110
'0:01.430',0.000,-0.120,-0.180,-0.050
'0:01.432',-0.040,-0.120,-0.160,0.000
'0:01.434',-0.070,-0.140,-0.120,0.030
'0:01.436',-0.090,-0.160,-0.090,0.040
'0:01.438',-0.110,-0.170,-0.070,0.060
'0:01.440',-0.120,-0.170,-0.050,0.070
'0:01.442',-0.150,-0.170,-0.020,0.120
'0:01.444',-0.180,-0.160,0.000,0.170
'0:01.446',-0.200,-0.160,0.020,0.200
'0:01.448',-0.220,-0.150,0.040,0.240
'0:01.450',-0.240,-0.150,0.060,0.260
'0:01.452',-0.250,-0.150,0.070,0.270
'0:01.454',-0.250,-0.140,0.070,0.270
'0:01.456',-0.240,-0.130,0.080,0.280
'0:01.458',-0.250,-0.110,0.100,0.320
'0:01.460',-0.250,-0.110,0.120,0.350
'0:01.462',-0.260,-0.110,0.130,0.370
'0:01.464',-0.260,-0.100,0.150,0.380
'0:01.466',-0.270,-0.090,0.150,0.390
'0:01.468',-0.270,-0.080,0.150,0.380
'0:01.470',-0.280,-0.070,0.150,0.360
'0:01.472',-0.290,-0.050,0.140,0.340
'0:01.474',-0.290,-0.060,0.150,0.330
'0:01.476',-0.290,-0.080,0.150,0.320
'0:01.478',-0.300,-0.100,0.150,0.330
'0:01.480',-0.320,-0.090,0.160,0.350
'0:01.482',-0.320,-0.090,0.170,0.350
'0:01.484',-0.310,-0.080,0.190,0.360
'0:01.486',-0.320,-0.060,0.210,0.360
'0:01.488',-0.310,-0.050,0.190,0.340
'0:01.490',-0.290,-0.060,0.170,0.330
'0:01.492',-0.270,-0.080,0.150,0.320
'0:01.494',-0.260,-0.080,0.140,0.310
'0:01.496',-0.260,-0.070,0.140,0.320
'0:01.498',-0.260,-0.070,0.130,0.330
'0:01.500',-0.250,-0.050,0.140,0.340
'0:01.502',-0.240,-0.060,0.140,0.330
'0:01.504',-0.220,-0.070,0.140,0.300
'0:01.506',-0.210,-0.080,0.130,0.280
'0:01.508',-0.200,-0.070,0.140,0.270
'0:01.510',-0.190,-0.070,0.140,0.260
'0:01.512',-0.200,-0.060,0.140,0.260
'0:01.514',-0.230,-0.030,0.150,0.270
'0:01.516',-0.240,-0.030,0.150,0.270
'0:01.518',-0.230,-0.030,0.140,0.250
'0:01.520',-0.200,-0.020,0.130,0.230
'0:01.522',-0.180,-0.010,0.120,0.210
'0:01.524',-0.180,-0.010,0.110,0.210
'0:01.526',-0.160,-0.020,0.090,0.210
'0:01.528',-0.170,0.000,0.110,0.250
'0:01.530',-0.190,0.000,0.130,0.260
'0:01.532',-0.190,0.010,0.140,0.240
'0:01.534',-0.160,0.000,0.130,0.220
'0:01.536',-0.150,0.000,0.110,0.190
'0:01.538',-0.140,0.000,0.100,0.170
'0:01.540',-0.120,0.000,0.100,0.160
'0:01.542',-0.120,0.020,0.110,0.200
'0:01.544',-0.140,0.030,0.120,0.230
'0:01.546',-0.140,0.030,0.120,0.240
'0:01.548',-0.150,0.030,0.120,0.240
'0:01.550',-0.140,0.020,0.120,0.220
'0:01.552',-0.130,0.020,0.130,0.200
'0:01.554',-0.110,0.020,0.130,0.170
'0:01.556',-0.090,0.020,0.120,0.160
'0:01.558',-0.090,0.010,0.120,0.170
'0:01.560',-0.080,0.000,0.110,0.170
'0:01.562',-0.070,0.000,0.120,0.190
'0:01.564',-0.070,0.010,0.130,0.210
'0:01.566',-0.070,0.030,0.130,0.200
'0:01.568',-0.070,0.030,0.110,0.190
'0:01.570',-0.060,0.050,0.120,0.210
'0:01.572',-0.050,0.060,0.130,0.210
'0:01.574',-0.040,0.060,0.130,0.200
'0:01.576',-0.040,0.050,0.130,0.200
'0:01.578',-0.040,0.040,0.120,0.200
'0:01.580',-0.040,0.050,0.110,0.210
'0:01.582',-0.050,0.060,0.110,0.220
'0:01.584',-0.050,0.090,0.120,0.240
'0:01.586',-0.040,0.100,0.120,0.220
'0:01.588',-0.020,0.100,0.110,0.180
'0:01.590',0.000,0.090,0.100,0.160
'0:01.592',0.000,0.070,0.100,0.150
'0:01.594',0.010,0.070,0.100,0.160
'0:01.596',0.000,0.070,0.110,0.170
'0:01.598',-0.010,0.080,0.120,0.200
'0:01.600',-0.020,0.080,0.120,0.210
'0:01.602',-0.020,0.060,0.120,0.200
'0:01.604',-0.020,0.060,0.110,0.170
'0:01.606',-0.010,0.050,0.100,0.150
'0:01.608',0.000,0.050,0.100,0.140
'0:01.610',0.000,0.050,0.110,0.140
'0:01.612',0.000,0.070,0.130,0.160
'0:01.614',-0.020,0.090,0.150,0.190
'0:01.616',-0.010,0.090,0.150,0.180
'0:01.618',0.000,0.080,0.140,0.170
'0:01.620',0.010,0.080,0.130,0.130
'0:01.622',0.030,0.070,0.110,0.100
'0:01.624',0.040,0.070,0.100,0.090
'0:01.626',0.050,0.090,0.100,0.120
'0:01.628',0.040,0.110,0.110,0.130
'0:01.630',0.020,0.100,0.120,0.140
'0:01.632',0.010,0.090,0.120,0.140
'0:01.634',0.020,0.090,0.110,0.130
'0:01.636',0.020,0.080,0.110,0.110
'0:01.638',0.030,0.070,0.100,0.070
'0:01.640',0.030,0.090,0.090,0.070
'0:01.642',0.020,0.100,0.090,0.080
'0:01.644',0.020,0.090,0.100,0.090
'0:01.646',0.010,0.080,0.110,0.090
'0:01.648',0.010,0.080,0.110,0.100
'0:01.650',0.010,0.070,0.110,0.100
'0:01.652',0.020,0.070,0.120,0.090
'0:01.654',0.030,0.080,0.120,0.100
'0:01.656',0.030,0.100,0.130,0.100
'0:01.658',0.040,0.090,0.110,0.090
'0:01.660',0.040,0.070,0.100,0.100
'0:01.662',0.030,0.060,0.090,0.110
'0:01.664',0.010,0.060,0.090,0.130
'0:01.666',0.020,0.070,0.100,0.130
'0:01.668',0.020,0.080,0.110,0.140
'0:01.670',0.010,0.100,0.120,0.120
'0:01.672',0.010,0.090,0.110,0.090
'0:01.674',0.030,0.080,0.110,0.070
'0:01.676',0.040,0.080,0.110,0.070
'0:01.678',0.040,0.080,0.110,0.070
'0:01.680',0.040,0.070,0.100,0.070
'0:01.682',0.030,0.080,0.090,0.080
'0:01.684',0.020,0.080,0.100,0.080
'0:01.686',0.010,0.070,0.100,0.060
'0:01.688',0.010,0.060,0.090,0.040
'0:01.690',0.030,0.040,0.070,0.030
'0:01.692',0.050,0.030,0.070,0.030
'0:01.694',0.050,0.020,0.070,0.030
'0:01.696',0.020,0.040,0.100,0.060
'0:01.698',0.010,0.060,0.110,0.100
'0:01.700',0.020,0.060,0.110,0.100
'0:01.702',0.040,0.050,0.100,0.070
'0:01.704',0.060,0.050,0.090,0.040
'0:01.706',0.080,0.040,0.080,0.030
'0:01.708',0.080,0.030,0.070,0.030
'0:01.710',0.060,0.040,0.060,0.040
'0:01.712',0.040,0.050,0.070,0.060
'0:01.714',0.020,0.060,0.080,0.070
'0:01.716',0.030,0.050,0.080,0.070
'0:01.718',0.040,0.040,0.070,0.070
'0:01.720',0.050,0.040,0.060,0.050
'0:01.722',0.050,0.040,0.060,0.040
'0:01.724',0.040,0.060,0.050,0.030
'0:01.726',0.040,0.060,0.060,0.040
'0:01.728',0.040,0.070,0.060,0.050
'0:01.730',0.030,0.070,0.070,0.070
'0:01.732',0.030,0.060,0.070,0.090
'0:01.734',0.030,0.050,0.070,0.100
'0:01.736',0.040,0.050,0.080,0.090
'0:01.738',0.040,0.060,0.070,0.070
'0:01.740',0.030,0.050,0.050,0.080
'0:01.742',0.040,0.040,0.050,0.090
'0:01.744',0.030,0.030,0.050,0.100
'0:01.746',0.010,0.020,0.060,0.110
'0:01.748',0.010,0.030,0.070,0.110
'0:01.750',0.010,0.020,0.070,0.110
'0:01.752',0.010,0.020,0.060,0.090
'0:01.754',0.010,0.030,0.040,0.070
'0:01.756',0.010,0.020,0.030,0.060
'0:01.758',0.010,0.010,0.040,0.060
'0:01.760',0.010,0.000,0.050,0.050
'0:01.762',0.000,0.000,0.070,0.070
'0:01.764',-0.020,0.000,0.080,0.090
'0:01.766',-0.030,0.010,0.090,0.120
'0:01.768',-0.030,0.020,0.090,0.130
'0:01.770',-0.010,0.030,0.090,0.110
'0:01.772',0.000,0.030,0.100,0.100
'0:01.774',0.000,0.030,0.110,0.090
'0:01.776',0.000,0.020,0.110,0.090
'0:01.778',0.000,0.020,0.110,0.090
'0:01.780',-0.020,0.050,0.130,0.100
'0:01.782',-0.030,0.070,0.140,0.120
'0:01.784',-0.020,0.070,0.130,0.120
'0:01.786',0.000,0.070,0.130,0.090
'0:01.788',0.000,0.070,0.120,0.070
'0:01.790',0.020,0.050,0.120,0.060
'0:01.792',0.020,0.040,0.110,0.060
'0:01.794',0.020,0.050,0.110,0.060
'0:01.796',0.010,0.060,0.110,0.080
'0:01.798',0.010,0.070,0.110,0.080
'0:01.800',0.010,0.060,0.090,0.060
'0:01.802',0.020,0.060,0.090,0.030
'0:01.804',0.030,0.060,0.080,0.000
'0:01.806',0.030,0.060,0.070,0.000
'0:01.808',0.040,0.060,0.060,0.000
'0:01.810',0.040,0.100,0.070,0.030
'0:01.812',0.030,0.110,0.080,0.050
'0:01.814',0.030,0.090,0.070,0.050
'0:01.816',0.040,0.070,0.070,0.040
'0:01.818',0.060,0.040,0.060,0.020
'0:01.820',0.070,0.040,0.050,0.000
'0:01.822',0.080,0.060,0.050,0.000
'0:01.824',0.080,0.090,0.050,0.000
'0:01.826',0.090,0.100,0.050,0.000
'0:01.828',0.100,0.100,0.040,0.000
'0:01.830',0.100,0.090,0.040,-0.010
'0:01.832',0.090,0.090,0.040,-0.010
'0:01.834',0.090,0.080,0.040,-0.030
'0:01.836',0.090,0.090,0.040,-0.040
'0:01.838',0.090,0.100,0.040,-0.050
'0:01.840',0.110,0.080,0.040,-0.050
'0:01.842',0.110,0.060,0.030,-0.060
'0:01.844',0.100,0.050,0.030,-0.050
'0:01.846',0.100,0.040,0.030,-0.030
'0:01.848',0.090,0.050,0.020,-0.030
'0:01.850',0.090,0.050,0.020,-0.030
'0:01.852',0.100,0.060,0.010,-0.050
'0:01.854',0.120,0.060,-0.010,-0.100
'0:01.856',0.160,0.050,-0.060,-0.160
'0:01.858',0.200,0.020,-0.130,-0.220
'0:01.860',0.230,0.000,-0.190,-0.270
'0:01.862',0.240,-0.010,-0.200,-0.280
'0:01.864',0.240,0.010,-0.140,-0.230
'0:01.866',0.230,0.110,0.020,-0.110
'0:01.868',0.230,0.250,0.260,0.030
'0:01.870',0.270,0.440,0.580,0.200
'0:01.872',0.360,0.720,0.980,0.400
'0:01.874',0.470,1.090,1.450,0.630
'0:01.876',0.590,1.510,1.980,0.910
'0:01.878',0.700,1.960,2.560,1.230
'0:01.880',0.790,2.450,3.150,1.560
'0:01.882',0.880,2.930,3.730,1.910
'0:01.884',0.950,3.370,4.260,2.240
'0:01.886',1.000,3.710,4.670,2.480
'0:01.888',1.030,3.940,4.910,2.600
'0:01.890',1.030,4.040,4.980,2.630
'0:01.892',1.000,4.000,4.890,2.600
'0:01.894',0.870,3.770,4.570,2.490
'0:01.896',0.640,3.280,4.030,2.300
'0:01.898',0.390,2.680,3.380,2.040
'0:01.900',0.180,2.100,2.740,1.750
'0:01.902',0.060,1.600,2.170,1.450
'0:01.904',-0.010,1.190,1.670,1.160
'0:01.906',-0.040,0.860,1.250,0.890
'0:01.908',-0.070,0.590,0.890,0.670
'0:01.910',-0.080,0.360,0.570,0.470
'0:01.912',-0.080,0.170,0.310,0.300
'0:01.914',-0.090,0.020,0.090,0.160
'0:01.916',-0.090,-0.100,-0.080,0.030
'0:01.918',-0.080,-0.210,-0.250,-0.080
'0:01.920',-0.080,-0.300,-0.400,-0.200
'0:01.922',-0.080,-0.370,-0.520,-0.280
'0:01.924',-0.070,-0.450,-0.620,-0.350
'0:01.926',-0.050,-0.530,-0.700,-0.410
'0:01.928',-0.030,-0.580,-0.750,-0.450
'0:01.930',-0.030,-0.610,-0.800,-0.480
'0:01.932',-0.040,-0.640,-0.830,-0.510
'0:01.934',-0.040,-0.670,-0.870,-0.530
'0:01.936',-0.050,-0.670,-0.900,-0.540
'0:01.938',-0.050,-0.680,-0.930,-0.580
'0:01.940',-0.050,-0.700,-0.940,-0.600
'0:01.942',-0.040,-0.700,-0.930,-0.610
'0:01.944',-0.030,-0.690,-0.930,-0.610
'0:01.946',-0.030,-0.680,-0.930,-0.620
'0:01.948',-0.030,-0.670,-0.920,-0.630
'0:01.950',-0.040,-0.640,-0.910,-0.620
'0:01.952',-0.040,-0.630,-0.910,-0.630
'0:01.954',-0.020,-0.620,-0.900,-0.650
'0:01.956',0.000,-0.630,-0.890,-0.660
'0:01.958',0.000,-0.630,-0.880,-0.650
'0:01.960',0.000,-0.610,-0.850,-0.630
'0:01.962',0.000,-0.570,-0.830,-0.610
'0:01.964',-0.020,-0.530,-0.810,-0.590
'0:01.966',-0.020,-0.510,-0.810,-0.580
'0:01.968',-0.010,-0.510,-0.820,-0.580
'0:01.970',0.000,-0.500,-0.810,-0.600
'0:01.972',0.020,-0.490,-0.800,-0.620
'0:01.974',0.020,-0.480,-0.770,-0.610
'0:01.976',0.020,-0.460,-0.750,-0.590
'0:01.978',0.000,-0.440,-0.730,-0.560
'0:01.980',0.000,-0.430,-0.730,-0.550
'0:01.982',0.000,-0.420,-0.720,-0.540
'0:01.984',0.000,-0.410,-0.700,-0.540
'0:01.986',0.010,-0.400,-0.690,-0.540
'0:01.988',0.020,-0.400,-0.680,-0.550
'0:01.990',0.030,-0.400,-0.680,-0.560
'0:01.992',0.050,-0.390,-0.660,-0.540
'0:01.994',0.060,-0.380,-0.640,-0.530
'0:01.996',0.050,-0.380,-0.620,-0.520
'0:01.998',0.040,-0.370,-0.600,-0.500
'0:02.000',0.040,-0.360,-0.590,-0.480
'0:02.002',0.050,-0.350,-0.600,-0.480
'0:02.004',0.060,-0.340,-0.600,-0.490
'0:02.006',0.070,-0.310,-0.590,-0.480
'0:02.008',0.080,-0.300,-0.570,-0.470
'0:02.010',0.080,-0.300,-0.560,-0.460
'0:02.012',0.070,-0.290,-0.560,-0.460
'0:02.014',0.060,-0.280,-0.540,-0.450
'0:02.016',0.060,-0.280,-0.530,-0.440
'0:02.018',0.070,-0.270,-0.520,-0.440
'0:02.020',0.080,-0.240,-0.520,-0.440
'0:02.022',0.090,-0.230,-0.520,-0.450
'0:02.024',0.090,-0.230,-0.520,-0.460
'0:02.026',0.100,-0.230,-0.510,-0.460
'0:02.028',0.090,-0.230,-0.500,-0.460
'0:02.030',0.080,-0.210,-0.490,-0.450
'0:02.032',0.080,-0.190,-0.490,-0.430
'0:02.034',0.090,-0.170,-0.480,-0.420
'0:02.036',0.100,-0.170,-0.470,-0.430
'0:02.038',0.120,-0.170,-0.470,-0.450
'0:02.040',0.140,-0.160,-0.490,-0.460
'0:02.042',0.160,-0.150,-0.500,-0.460
'0:02.044',0.170,-0.140,-0.490,-0.470
'0:02.046',0.170,-0.130,-0.480,-0.460
'0:02.048',0.180,-0.100,-0.470,-0.450
'0:02.050',0.180,-0.080,-0.460,-0.450
'0:02.052',0.190,-0.070,-0.460,-0.480
'0:02.054',0.210,-0.060,-0.460,-0.500
'0:02.056',0.250,-0.060,-0.460,-0.510
'0:02.058',0.280,-0.060,-0.460,-0.520
'0:02.060',0.290,-0.060,-0.450,-0.520
'0:02.062',0.290,-0.050,-0.440,-0.510
'0:02.064',0.280,-0.030,-0.430,-0.490
'0:02.066',0.290,-0.020,-0.430,-0.490
'0:02.068',0.310,-0.010,-0.450,-0.500
'0:02.070',0.340,0.000,-0.450,-0.520
'0:02.072',0.360,0.010,-0.450,-0.530
'0:02.074',0.390,0.000,-0.450,-0.540
'0:02.076',0.400,0.000,-0.450,-0.540
'0:02.078',0.390,0.010,-0.450,-0.530
'0:02.080',0.370,0.020,-0.440,-0.520
'0:02.082',0.360,0.030,-0.440,-0.520
'0:02.084',0.370,0.030,-0.440,-0.520
'0:02.086',0.370,0.020,-0.430,-0.520
'0:02.088',0.380,0.010,-0.430,-0.540
'0:02.090',0.370,0.010,-0.430,-0.530
'0:02.092',0.350,0.020,-0.420,-0.510
'0:02.094',0.330,0.010,-0.410,-0.490
'0:02.096',0.310,0.000,-0.400,-0.480
'0:02.098',0.290,0.000,-0.390,-0.460
'0:02.100',0.290,-0.010,-0.370,-0.440
'0:02.102',0.280,-0.020,-0.370,-0.430
'0:02.104',0.280,-0.010,-0.360,-0.430
'0:02.106',0.270,-0.010,-0.350,-0.410
'0:02.108',0.260,-0.030,-0.350,-0.390
'0:02.110',0.240,-0.050,-0.340,-0.360
'0:02.112',0.190,-0.060,-0.330,-0.330
'0:02.114',0.140,-0.060,-0.330,-0.290
'0:02.116',0.110,-0.060,-0.310,-0.260
'0:02.118',0.100,-0.050,-0.280,-0.230
'0:02.120',0.080,-0.050,-0.260,-0.210
'0:02.122',0.070,-0.070,-0.240,-0.190
'0:02.124',0.060,-0.080,-0.220,-0.170
'0:02.126',0.030,-0.110,-0.190,-0.140
'0:02.128',0.000,-0.120,-0.160,-0.090
'0:02.130',-0.030,-0.120,-0.130,-0.050
'0:02.132',-0.070,-0.130,-0.100,0.010
'0:02.134',-0.110,-0.130,-0.090,0.060
'0:02.136',-0.130,-0.130,-0.070,0.050
'0:02.138',-0.140,-0.140,-0.050,0.050
'0:02.140',-0.150,-0.150,-0.040,0.060
'0:02.142',-0.150,-0.150,-0.010,0.080
'0:02.144',-0.160,-0.150,0.000,0.110
'0:02.146',-0.200,-0.140,0.020,0.150
'0:02.148',-0.220,-0.120,0.040,0.190
'0:02.150',-0.220,-0.130,0.050,0.210
'0:02.152',-0.220,-0.130,0.050,0.220
'0:02.154',-0.230,-0.130,0.050,0.210
'0:02.156',-0.230,-0.130,0.060,0.210
'0:02.158',-0.220,-0.130,0.070,0.210
'0:02.160',-0.230,-0.130,0.080,0.240
'0:02.162',-0.250,-0.120,0.080,0.270
'0:02.164',-0.250,-0.120,0.080,0.270
'0:02.166',-0.250,-0.110,0.090,0.280
'0:02.168',-0.240,-0.100,0.090,0.280
'0:02.170',-0.240,-0.090,0.100,0.260
'0:02.172',-0.240,-0.090,0.100,0.250
'0:02.174',-0.250,-0.080,0.110,0.260
'0:02.176',-0.260,-0.070,0.110,0.270
'0:02.178',-0.260,-0.080,0.120,0.280
'0:02.180',-0.260,-0.090,0.130,0.290
'0:02.182',-0.260,-0.080,0.130,0.280
'0:02.184',-0.260,-0.090,0.110,0.270
'0:02.186',-0.260,-0.100,0.090,0.250
'0:02.188',-0.250,-0.090,0.090,0.240
'0:02.190',-0.250,-0.080,0.090,0.250
'0:02.192',-0.240,-0.080,0.090,0.240
'0:02.194',-0.240,-0.080,0.090,0.230
'0:02.196',-0.250,-0.080,0.100,0.230
'0:02.198',-0.250,-0.070,0.110,0.230
'0:02.200',-0.250,-0.060,0.110,0.240
'0:02.202',-0.260,-0.040,0.110,0.240
'0:02.204',-0.250,-0.030,0.100,0.230
'0:02.206',-0.220,-0.040,0.080,0.210
'0:02.208',-0.200,-0.050,0.080,0.200
'0:02.210',-0.180,-0.050,0.090,0.200
'0:02.212',-0.180,-0.040,0.100,0.200
'0:02.214',-0.170,-0.040,0.100,0.200
'0:02.216',-0.160,-0.030,0.110,0.210
'0:02.218',-0.160,-0.020,0.110,0.220
'0:02.220',-0.160,-0.030,0.100,0.200
'0:02.222',-0.140,-0.050,0.090,0.180
'0:02.224',-0.130,-0.050,0.080,0.180
'0:02.226',-0.140,-0.040,0.080,0.160
'0:02.228',-0.150,-0.040,0.070,0.160
'0:02.230',-0.160,-0.030,0.080,0.180
'0:02.232',-0.160,-0.020,0.090,0.190
'0:02.234',-0.140,-0.010,0.090,0.180
'0:02.236',-0.130,-0.010,0.080,0.160
'0:02.238',-0.120,-0.010,0.070,0.140
'0:02.240',-0.110,-0.020,0.060,0.130
'0:02.242',-0.100,-0.020,0.050,0.130
'0:02.244',-0.100,-0.020,0.060,0.150
'0:02.246',-0.100,-0.010,0.080,0.170
'0:02.248',-0.090,0.000,0.070,0.180
'0:02.250',-0.080,0.000,0.070,0.190
'0:02.252',-0.070,0.000,0.060,0.170
'0:02.254',-0.050,0.000,0.050,0.160
'0:02.256',-0.030,0.000,0.060,0.140
'0:02.258',-0.020,0.000,0.070,0.130
'0:02.260',-0.030,0.010,0.080,0.150
'0:02.262',-0.040,0.010,0.090,0.160
'0:02.264',-0.040,0.010,0.090,0.150
'0:02.266',-0.030,0.010,0.100,0.140
'0:02.268',-0.030,0.010,0.110,0.120
'0:02.270',-0.020,0.010,0.120,0.100
'0:02.272',-0.020,0.010,0.120,0.080
'0:02.274',-0.020,0.030,0.130,0.090
'0:02.276',-0.020,0.030,0.120,0.100
'0:02.278',-0.020,0.010,0.110,0.100
'0:02.280',-0.020,0.010,0.110,0.120
'0:02.282',-0.030,0.020,0.100,0.120
'0:02.284',-0.020,0.010,0.100,0.120
'0:02.286',-0.010,0.030,0.100,0.110
'0:02.288',-0.010,0.050,0.090,0.100
'0:02.290',0.000,0.040,0.080,0.090
'0:02.292',0.020,0.020,0.070,0.090
'0:02.294',0.030,0.010,0.080,0.090
'0:02.296',0.020,0.030,0.080,0.100
'0:02.298',0.010,0.030,0.080,0.110
'0:02.300',0.000,0.030,0.100,0.120
'0:02.302',0.000,0.060,0.140,0.140
'0:02.304',0.000,0.060,0.140,0.130
'0:02.306',0.020,0.060,0.130,0.110
'0:02.308',0.030,0.050,0.120,0.100
'0:02.310',0.030,0.040,0.110,0.100
'0:02.312',0.010,0.040,0.100,0.120
'0:02.314',0.000,0.050,0.100,0.130
'0:02.316',-0.010,0.070,0.100,0.140
'0:02.318',0.000,0.060,0.100,0.120
'0:02.320',0.000,0.060,0.100,0.100
'0:02.322',0.000,0.050,0.090,0.070
'0:02.324',0.010,0.050,0.080,0.060
'0:02.326',0.010,0.030,0.080,0.060
'0:02.328',0.000,0.040,0.070,0.070
'0:02.330',0.000,0.050,0.070,0.100
'0:02.332',-0.010,0.050,0.070,0.110
'0:02.334',-0.010,0.050,0.060,0.110
'0:02.336',-0.010,0.050,0.050,0.090
'0:02.338',0.000,0.060,0.050,0.070
'0:02.340',0.020,0.050,0.050,0.060
'0:02.342',0.020,0.040,0.050,0.050
'0:02.344',0.010,0.050,0.060,0.070
'0:02.346',0.000,0.050,0.070,0.080
'0:02.348',-0.010,0.050,0.080,0.090
'0:02.350',-0.020,0.030,0.080,0.090
'0:02.352',-0.010,0.010,0.080,0.080
'0:02.354',0.000,0.010,0.070,0.060
'0:02.356',0.000,0.020,0.050,0.040
'0:02.358',0.000,0.040,0.050,0.060
'0:02.360',0.000,0.030,0.060,0.070
'0:02.362',0.000,0.030,0.060,0.080
'0:02.364',-0.010,0.040,0.060,0.080
'0:02.366',0.000,0.040,0.060,0.090
'0:02.368',0.000,0.030,0.060,0.070
'0:02.370',0.010,0.030,0.060,0.050
'0:02.372',0.010,0.060,0.060,0.040
'0:02.374',0.010,0.060,0.060,0.040
'0:02.376',0.020,0.050,0.070,0.050
'0:02.378',0.010,0.050,0.080,0.040
'0:02.380',0.000,0.050,0.090,0.050
'0:02.382',0.000,0.050,0.090,0.050
'0:02.384',0.000,0.050,0.070,0.060
'0:02.386',0.000,0.060,0.080,0.070
'0:02.388',0.000,0.060,0.080,0.060
'0:02.390',0.010,0.040,0.080,0.050
'0:02.392',0.020,0.020,0.070,0.050
'0:02.394',0.010,0.010,0.070,0.060
'0:02.396',0.000,0.000,0.080,0.070
'0:02.398',0.000,0.000,0.080,0.070
'0:02.400',-0.010,0.020,0.090,0.070
'0:02.402',0.000,0.030,0.090,0.060
'0:02.404',0.010,0.030,0.090,0.040
'0:02.406',0.020,0.020,0.080,0.030
'0:02.408',0.020,0.030,0.080,0.030
'0:02.410',0.030,0.030,0.070,0.020
'0:02.412',0.020,0.030,0.080,0.030
'0:02.414',0.010,0.040,0.080,0.050
'0:02.416',0.000,0.040,0.070,0.060
'0:02.418',0.000,0.010,0.040,0.050
'0:02.420',0.000,0.000,0.030,0.040
'0:02.422',0.000,0.000,0.040,0.030
'0:02.424',-0.010,0.000,0.030,0.020
'0:02.426',-0.030,0.010,0.020,0.030
'0:02.428',-0.050,0.040,0.020,0.050
'0:02.430',-0.050,0.050,0.010,0.060
'0:02.432',-0.040,0.040,0.020,0.060
'0:02.434',-0.020,0.030,0.020,0.050
'0:02.436',-0.010,0.020,0.010,0.050
'0:02.438',0.000,0.010,0.010,0.040
'0:02.440',0.000,0.000,0.010,0.040
'0:02.442',-0.020,0.000,0.010,0.050
'0:02.444',-0.040,0.000,0.020,0.060
'0:02.446',-0.040,0.000,0.020,0.070
'0:02.448',-0.040,-0.010,0.030,0.080
'0:02.450',-0.040,-0.020,0.040,0.080
'0:02.452',-0.040,-0.010,0.040,0.080
'0:02.454',-0.040,-0.010,0.040,0.060
'0:02.456',-0.050,0.000,0.050,0.070
'0:02.458',-0.050,0.000,0.070,0.100
'0:02.460',-0.050,-0.010,0.070,0.110
'0:02.462',-0.050,0.000,0.080,0.120
'0:02.464',-0.050,0.000,0.080,0.130
'0:02.466',-0.050,0.000,0.080,0.140
'0:02.468',-0.040,0.000,0.070,0.140
'0:02.470',-0.030,0.020,0.080,0.130
'0:02.472',-0.020,0.030,0.080,0.120
'0:02.474',-0.010,0.030,0.090,0.100
'0:02.476',0.000,0.040,0.090,0.080
'0:02.478',0.000,0.040,0.100,0.080
'0:02.480',-0.010,0.050,0.110,0.080
'0:02.482',-0.020,0.050,0.120,0.080
'0:02.484',-0.020,0.070,0.130,0.090
'0:02.486',-0.020,0.070,0.120,0.080
'0:02.488',-0.010,0.050,0.100,0.040
'0:02.490',0.000,0.040,0.090,0.030
'0:02.492',0.000,0.020,0.070,0.020
'0:02.494',0.000,0.010,0.070,0.010
'0:02.496',0.000,0.010,0.060,0.010
'0:02.498',0.000,0.030,0.070,0.030
'0:02.500',0.000,0.060,0.080,0.050
'0:02.502',0.010,0.070,0.070,0.030
'0:02.504',0.020,0.070,0.050,0.010
'0:02.506',0.040,0.060,0.030,0.000
'0:02.508',0.050,0.050,0.010,0.000
'0:02.510',0.050,0.040,0.000,0.000
'0:02.512',0.020,0.050,0.020,0.000
'0:02.514',0.000,0.070,0.040,0.020
'0:02.516',0.010,0.070,0.050,0.020
'0:02.518',0.020,0.060,0.050,0.000
'0:02.520',0.040,0.060,0.050,-0.020
'0:02.522',0.060,0.060,0.040,-0.040
'0:02.524',0.060,0.060,0.030,-0.040
'0:02.526',0.040,0.070,0.030,-0.020
'0:02.528',0.030,0.080,0.040,0.000
'0:02.530',0.020,0.080,0.030,0.010
'0:02.532',0.020,0.080,0.020,0.020
'0:02.534',0.040,0.070,0.000,0.020
'0:02.536',0.040,0.070,0.000,0.010
'0:02.538',0.060,0.070,0.000,0.000
'0:02.540',0.070,0.090,0.000,0.000
'0:02.542',0.070,0.090,0.000,0.000
'0:02.544',0.080,0.070,-0.020,-0.020
'0:02.546',0.080,0.060,-0.050,-0.060
'0:02.548',0.100,0.050,-0.090,-0.100
'0:02.550',0.120,0.030,-0.150,-0.150
'0:02.552',0.140,0.000,-0.210,-0.230
'0:02.554',0.160,-0.020,-0.250,-0.280
'0:02.556',0.170,-0.020,-0.240,-0.270
'0:02.558',0.210,0.010,-0.140,-0.210
'0:02.560',0.240,0.120,0.070,-0.070
'0:02.562',0.240,0.310,0.380,0.130
'0:02.564',0.270,0.580,0.790,0.360
'0:02.566',0.380,0.940,1.290,0.610
'0:02.568',0.510,1.400,1.830,0.860
'0:02.570',0.640,1.880,2.410,1.140
'0:02.572',0.780,2.360,3.010,1.440
'0:02.574',0.900,2.840,3.610,1.770
'0:02.576',1.010,3.320,4.200,2.120
'0:02.578',1.070,3.770,4.750,2.440
'0:02.580',1.120,4.150,5.180,2.700
'0:02.582',1.140,4.420,5.430,2.870
'0:02.584',1.130,4.550,5.500,2.950
'0:02.586',1.070,4.490,5.410,2.920
'0:02.588',0.950,4.260,5.120,2.790
'0:02.590',0.760,3.790,4.590,2.570
'0:02.592',0.510,3.170,3.900,2.280
'0:02.594',0.300,2.520,3.180,1.970
'0:02.596',0.130,1.960,2.520,1.650
'0:02.598',0.030,1.500,1.930,1.340
'0:02.600',-0.020,1.100,1.420,1.040
'0:02.602',-0.060,0.750,0.990,0.760
'0:02.604',-0.090,0.460,0.630,0.510
'0:02.606',-0.100,0.210,0.310,0.300
'0:02.608',-0.120,0.000,0.040,0.120
'0:02.610',-0.140,-0.160,-0.190,0.000
'0:02.612',-0.170,-0.300,-0.370,-0.100
'0:02.614',-0.180,-0.410,-0.540,-0.200
'0:02.616',-0.190,-0.510,-0.670,-0.290
'0:02.618',-0.180,-0.600,-0.780,-0.370
'0:02.620',-0.160,-0.670,-0.870,-0.460
'0:02.622',-0.150,-0.730,-0.950,-0.530
'0:02.624',-0.140,-0.770,-1.000,-0.570
'0:02.626',-0.150,-0.800,-1.040,-0.600
'0:02.628',-0.150,-0.810,-1.070,-0.630
'0:02.630',-0.150,-0.820,-1.090,-0.640
'0:02.632',-0.140,-0.830,-1.100,-0.640
'0:02.634',-0.140,-0.860,-1.120,-0.660
'0:02.636',-0.140,-0.860,-1.130,-0.680
'0:02.638',-0.140,-0.850,-1.120,-0.700
'0:02.640',-0.140,-0.830,-1.110,-0.690
'0:02.642',-0.130,-0.820,-1.110,-0.690
'0:02.644',-0.130,-0.810,-1.100,-0.670
'0:02.646',-0.130,-0.800,-1.070,-0.660
'0:02.648',-0.140,-0.790,-1.050,-0.660
'0:02.650',-0.120,-0.770,-1.040,-0.660
'0:02.652',-0.110,-0.750,-1.020,-0.670
'0:02.654',-0.110,-0.730,-1.000,-0.660
'0:02.656',-0.090,-0.730,-0.990,-0.650
'0:02.658',-0.070,-0.730,-0.990,-0.650
'0:02.660',-0.060,-0.730,-0.970,-0.650
'0:02.662',-0.060,-0.720,-0.940,-0.630
'0:02.664',-0.070,-0.710,-0.930,-0.620
'0:02.666',-0.070,-0.680,-0.910,-0.580
'0:02.668',-0.080,-0.660,-0.890,-0.560
'0:02.670',-0.070,-0.630,-0.870,-0.580
'0:02.672',-0.060,-0.610,-0.860,-0.600
'0:02.674',-0.050,-0.610,-0.850,-0.600
'0:02.676',-0.040,-0.590,-0.830,-0.590
'0:02.678',-0.050,-0.580,-0.830,-0.580
'0:02.680',-0.070,-0.560,-0.820,-0.570
'0:02.682',-0.070,-0.530,-0.800,-0.540
'0:02.684',-0.050,-0.520,-0.770,-0.530
'0:02.686',-0.030,-0.510,-0.770,-0.540
'0:02.688',0.000,-0.500,-0.770,-0.550
'0:02.690',0.000,-0.480,-0.770,-0.550
'0:02.692',0.000,-0.470,-0.750,-0.540
'0:02.694',0.000,-0.460,-0.730,-0.520
'0:02.696',-0.020,-0.440,-0.700,-0.490
'0:02.698',-0.030,-0.430,-0.690,-0.480
'0:02.700',-0.020,-0.420,-0.680,-0.490
'0:02.702',-0.010,-0.420,-0.680,-0.500
'0:02.704',0.010,-0.420,-0.670,-0.510
'0:02.706',0.030,-0.420,-0.660,-0.510
'0:02.708',0.010,-0.410,-0.650,-0.500
'0:02.710',0.000,-0.380,-0.640,-0.480
'0:02.712',-0.010,-0.370,-0.640,-0.470
'0:02.714',-0.020,-0.360,-0.640,-0.450
'0:02.716',-0.010,-0.360,-0.630,-0.440
'0:02.718',0.000,-0.370,-0.620,-0.440
'0:02.720',0.020,-0.360,-0.610,-0.460
'0:02.722',0.040,-0.340,-0.600,-0.460
'0:02.724',0.040,-0.310,-0.600,-0.460
'0:02.726',0.050,-0.310,-0.590,-0.460
'0:02.728',0.060,-0.300,-0.570,-0.460
'0:02.730',0.060,-0.290,-0.570,-0.460
'0:02.732',0.070,-0.280,-0.570,-0.460
'0:02.734',0.090,-0.270,-0.580,-0.490
'0:02.736',0.110,-0.260,-0.580,-0.510
'0:02.738',0.110,-0.240,-0.570,-0.500
'0:02.740',0.110,-0.240,-0.560,-0.510
'0:02.742',0.140,-0.240,-0.550,-0.520
'0:02.744',0.160,-0.230,-0.550,-0.520
'0:02.746',0.170,-0.220,-0.540,-0.530
'0:02.748',0.180,-0.210,-0.540,-0.530
'0:02.750',0.190,-0.180,-0.540,-0.540
'0:02.752',0.200,-0.160,-0.550,-0.560
'0:02.754',0.220,-0.150,-0.540,-0.580
'0:02.756',0.240,-0.140,-0.540,-0.600
'0:02.758',0.260,-0.140,-0.540,-0.610
'0:02.760',0.270,-0.140,-0.530,-0.610
'0:02.762',0.270,-0.120,-0.520,-0.600
'0:02.764',0.260,-0.100,-0.520,-0.580
'0:02.766',0.260,-0.080,-0.520,-0.580
'0:02.768',0.280,-0.060,-0.530,-0.580
'0:02.770',0.300,-0.050,-0.540,-0.580
'0:02.772',0.320,-0.040,-0.540,-0.600
'0:02.774',0.320,-0.040,-0.540,-0.610
'0:02.776',0.330,-0.040,-0.540,-0.610
'0:02.778',0.330,-0.040,-0.530,-0.590
'0:02.780',0.310,-0.010,-0.500,-0.530
'0:02.782',0.300,-0.010,-0.480,-0.500
'0:02.784',0.310,-0.020,-0.470,-0.490
'0:02.786',0.320,-0.020,-0.470,-0.500
'0:02.788',0.330,-0.030,-0.470,-0.520
'0:02.790',0.330,-0.050,-0.470,-0.530
'0:02.792',0.320,-0.060,-0.460,-0.510
'0:02.794',0.290,-0.030,-0.450,-0.480
'0:02.796',0.270,-0.020,-0.430,-0.470
'0:02.798',0.260,-0.020,-0.410,-0.440
'0:02.800',0.250,-0.030,-0.390,-0.410
'0:02.802',0.240,-0.040,-0.400,-0.390
'0:02.804',0.230,-0.050,-0.390,-0.390
'0:02.806',0.210,-0.070,-0.370,-0.370
'0:02.808',0.180,-0.070,-0.350,-0.310
'0:02.810',0.150,-0.080,-0.320,-0.250
'0:02.812',0.110,-0.090,-0.290,-0.200
'0:02.814',0.080,-0.110,-0.270,-0.150
'0:02.816',0.050,-0.110,-0.240,-0.110
'0:02.818',0.020,-0.120,-0.210,-0.080
'0:02.820',0.000,-0.130,-0.180,-0.060
'0:02.822',-0.030,-0.140,-0.130,0.000
'0:02.824',-0.060,-0.140,-0.100,0.030
'0:02.826',-0.080,-0.150,-0.080,0.060
'0:02.828',-0.110,-0.150,-0.070,0.090
'0:02.830',-0.140,-0.150,-0.060,0.130
'0:02.832',-0.170,-0.150,-0.040,0.170
'0:02.834',-0.200,-0.150,-0.020,0.190
'0:02.836',-0.220,-0.150,-0.020,0.200
'0:02.838',-0.230,-0.150,0.000,0.210
'0:02.840',-0.230,-0.150,0.020,0.210
'0:02.842',-0.230,-0.150,0.040,0.220
'0:02.844',-0.240,-0.140,0.060,0.260
'0:02.846',-0.260,-0.140,0.070,0.280
'0:02.848',-0.270,-0.130,0.090,0.300
'0:02.850',-0.280,-0.110,0.110,0.310
'0:02.852',-0.290,-0.100,0.120,0.310
'0:02.854',-0.280,-0.110,0.140,0.300
'0:02.856',-0.270,-0.120,0.150,0.290
'0:02.858',-0.270,-0.130,0.140,0.290
'0:02.860',-0.270,-0.120,0.130,0.300
'0:02.862',-0.270,-0.120,0.140,0.320
'0:02.864',-0.280,-0.110,0.160,0.350
'0:02.866',-0.290,-0.110,0.170,0.370
'0:02.868',-0.290,-0.110,0.160,0.370
'0:02.870',-0.300,-0.110,0.170,0.350
'0:02.872',-0.280,-0.110,0.170,0.320
'0:02.874',-0.260,-0.110,0.170,0.310
'0:02.876',-0.260,-0.110,0.150,0.330
'0:02.878',-0.280,-0.080,0.150,0.350
'0:02.880',-0.300,-0.060,0.150,0.370
'0:02.882',-0.300,-0.060,0.140,0.360
'0:02.884',-0.290,-0.070,0.130,0.340
'0:02.886',-0.280,-0.080,0.120,0.320
'0:02.888',-0.250,-0.070,0.110,0.290
'0:02.890',-0.230,-0.080,0.100,0.280
'0:02.892',-0.230,-0.060,0.110,0.290
'0:02.894',-0.240,-0.050,0.120,0.300
'0:02.896',-0.240,-0.050,0.120,0.310
'0:02.898',-0.250,-0.040,0.110,0.310
'0:02.900',-0.240,-0.050,0.110,0.300
'0:02.902',-0.230,-0.050,0.100,0.270
'0:02.904',-0.230,-0.040,0.100,0.250
'0:02.906',-0.220,-0.030,0.100,0.260
'0:02.908',-0.220,-0.030,0.100,0.270
'0:02.910',-0.220,-0.040,0.100,0.270
'0:02.912',-0.230,-0.040,0.100,0.270
'0:02.914',-0.240,-0.030,0.100,0.280
'0:02.916',-0.230,-0.030,0.110,0.290
'0:02.918',-0.220,-0.020,0.120,0.270
'0:02.920',-0.220,0.000,0.120,0.260
'0:02.922',-0.210,0.000,0.100,0.250
'0:02.924',-0.190,0.000,0.100,0.230
'0:02.926',-0.180,-0.020,0.090,0.230
'0:02.928',-0.190,-0.030,0.100,0.260
'0:02.930',-0.190,-0.020,0.110,0.270
'0:02.932',-0.180,-0.010,0.110,0.270
'0:02.934',-0.180,0.010,0.110,0.290
'0:02.936',-0.180,0.030,0.120,0.270
'0:02.938',-0.160,0.020,0.100,0.240
'0:02.940',-0.160,0.020,0.090,0.230
'0:02.942',-0.160,0.010,0.080,0.220
'0:02.944',-0.180,0.000,0.080,0.210
'0:02.946',-0.180,0.010,0.090,0.210
'0:02.948',-0.170,0.010,0.090,0.220
'0:02.950',-0.160,0.010,0.090,0.240
'0:02.952',-0.140,0.000,0.080,0.240
'0:02.954',-0.120,0.010,0.080,0.220
'0:02.956',-0.100,0.000,0.080,0.210
'0:02.958',-0.080,0.000,0.070,0.210
'0:02.960',-0.080,0.000,0.070,0.210
'0:02.962',-0.100,0.030,0.080,0.220
'0:02.964',-0.110,0.050,0.090,0.230
'0:02.966',-0.110,0.040,0.090,0.240
'0:02.968',-0.100,0.040,0.090,0.230
'0:02.970',-0.090,0.040,0.090,0.210
'0:02.972',-0.070,0.030,0.090,0.190
'0:02.974',-0.060,0.020,0.090,0.190
'0:02.976',-0.070,0.040,0.100,0.210
'0:02.978',-0.090,0.060,0.120,0.230
'0:02.980',-0.090,0.060,0.130,0.230
'0:02.982',-0.080,0.070,0.130,0.220
'0:02.984',-0.060,0.070,0.130,0.190
'0:02.986',-0.050,0.070,0.120,0.170
'0:02.988',-0.050,0.070,0.100,0.140
'0:02.990',-0.030,0.080,0.110,0.150
'0:02.992',-0.030,0.080,0.120,0.160
'0:02.994',-0.010,0.070,0.120,0.160
'0:02.996',-0.030,0.070,0.120,0.160
'0:02.998',-0.030,0.070,0.110,0.160
'0:03.000',-0.030,0.070,0.110,0.170
'0:03.002',-0.020,0.060,0.110,0.150
'0:03.004',-0.020,0.070,0.110,0.140
'0:03.006',-0.020,0.080,0.110,0.140
'0:03.008',-0.010,0.070,0.100,0.130
'0:03.010',0.000,0.060,0.100,0.120
'0:03.012',-0.010,0.070,0.100,0.130
'0:03.014',-0.010,0.070,0.100,0.140
'0:03.016',0.000,0.070,0.110,0.130
'0:03.018',0.000,0.070,0.120,0.130
'0:03.020',0.000,0.090,0.120,0.130
'0:03.022',0.010,0.080,0.100,0.110
'0:03.024',0.020,0.070,0.090,0.100
'0:03.026',0.020,0.060,0.090,0.090
'0:03.028',0.000,0.050,0.090,0.100
'0:03.030',0.000,0.040,0.090,0.110
'0:03.032',-0.010,0.060,0.100,0.140
'0:03.034',-0.020,0.070,0.110,0.140
'0:03.036',-0.010,0.060,0.110,0.110
'0:03.038',0.000,0.060,0.110,0.080
'0:03.040',0.010,0.060,0.110,0.080
'0:03.042',0.020,0.050,0.110,0.080
'0:03.044',0.010,0.040,0.110,0.080
'0:03.046',0.000,0.070,0.110,0.090
'0:03.048',-0.010,0.090,0.110,0.090
'0:03.050',0.000,0.100,0.100,0.090
'0:03.052',0.000,0.100,0.100,0.080
'0:03.054',0.000,0.090,0.090,0.060
'0:03.056',0.010,0.080,0.080,0.060
'0:03.058',0.040,0.070,0.070,0.070
'0:03.060',0.030,0.060,0.080,0.090
'0:03.062',0.000,0.070,0.110,0.130
'0:03.064',0.000,0.060,0.120,0.140
'0:03.066',0.000,0.070,0.130,0.140
'0:03.068',0.010,0.060,0.110,0.120
'0:03.070',0.020,0.060,0.090,0.080
'0:03.072',0.030,0.050,0.090,0.050
'0:03.074',0.030,0.040,0.100,0.040
'0:03.076',0.020,0.050,0.110,0.070
'0:03.078',0.020,0.050,0.110,0.070
'0:03.080',0.030,0.050,0.120,0.070
'0:03.082',0.030,0.050,0.120,0.070
'0:03.084',0.030,0.050,0.110,0.060
'0:03.086',0.040,0.060,0.100,0.050
'0:03.088',0.060,0.070,0.090,0.040
'0:03.090',0.060,0.070,0.090,0.040
'0:03.092',0.060,0.050,0.090,0.040
'0:03.094',0.050,0.040,0.080,0.040
'0:03.096',0.030,0.040,0.070,0.030
'0:03.098',0.020,0.040,0.070,0.030
'0:03.100',0.010,0.030,0.060,0.030
'0:03.102',0.010,0.040,0.050,0.040
'0:03.104',0.000,0.070,0.060,0.050
'0:03.106',0.020,0.060,0.060,0.050
'0:03.108',0.030,0.050,0.060,0.050
'0:03.110',0.030,0.030,0.060,0.050
'0:03.112',0.020,0.020,0.080,0.050
'0:03.114',0.010,0.020,0.080,0.050
'0:03.116',0.000,0.020,0.090,0.050
'0:03.118',0.000,0.020,0.090,0.060
'0:03.120',0.000,0.010,0.080,0.040
'0:03.122',0.000,0.010,0.060,0.030
'0:03.124',0.010,0.000,0.040,0.040
'0:03.126',0.000,-0.010,0.030,0.050
'0:03.128',0.000,-0.010,0.050,0.070
'0:03.130',-0.020,0.000,0.080,0.090
'0:03.132',-0.030,0.010,0.080,0.100
'0:03.134',-0.020,0.000,0.060,0.080
'0:03.136',-0.010,0.000,0.040,0.060
'0:03.138',-0.020,-0.010,0.040,0.050
'0:03.140',-0.020,-0.020,0.030,0.040
'0:03.142',-0.020,-0.030,0.020,0.040
'0:03.144',-0.040,-0.030,0.030,0.060
'0:03.146',-0.070,-0.010,0.060,0.110
'0:03.148',-0.070,-0.010,0.070,0.120
'0:03.150',-0.060,-0.010,0.070,0.120
'0:03.152',-0.060,-0.010,0.060,0.100
'0:03.154',-0.050,0.000,0.060,0.070
'0:03.156',-0.030,-0.010,0.060,0.060
'0:03.158',-0.050,0.000,0.060,0.070
'0:03.160',-0.060,0.000,0.080,0.090
'0:03.162',-0.070,0.010,0.090,0.110
'0:03.164',-0.070,0.010,0.090,0.130
'0:03.166',-0.070,0.010,0.090,0.130
'0:03.168',-0.050,0.000,0.080,0.120
'0:03.170',-0.040,0.000,0.070,0.090
'0:03.172',-0.020,0.010,0.070,0.070
'0:03.174',-0.030,0.030,0.070,0.080
'0:03.176',-0.030,0.040,0.070,0.080
'0:03.178',-0.030,0.040,0.070,0.070
'0:03.180',-0.040,0.030,0.090,0.070
'0:03.182',-0.030,0.040,0.100,0.060
'0:03.184',-0.020,0.040,0.090,0.050
'0:03.186',-0.020,0.040,0.090,0.040
'0:03.188',-0.020,0.070,0.100,0.040
'0:03.190',0.000,0.070,0.100,0.030
'0:03.192',0.020,0.050,0.080,0.030
'0:03.194',0.020,0.030,0.050,0.030
'0:03.196',0.010,0.030,0.050,0.030
'0:03.198',0.010,0.030,0.050,0.030
'0:03.200',0.020,0.050,0.050,0.030
'0:03.202',0.030,0.070,0.060,0.020
'0:03.204',0.040,0.080,0.060,-0.010
'0:03.206',0.060,0.060,0.050,-0.020
'0:03.208',0.070,0.050,0.040,-0.030
'0:03.210',0.080,0.040,0.030,-0.030
'0:03.212',0.070,0.040,0.030,-0.030
'0:03.214',0.060,0.050,0.050,-0.020
'0:03.216',0.050,0.070,0.070,0.000
'0:03.218',0.050,0.090,0.060,-0.010
'0:03.220',0.080,0.090,0.040,-0.030
'0:03.222',0.100,0.090,0.030,-0.060
'0:03.224',0.110,0.080,0.030,-0.080
'0:03.226',0.110,0.070,0.030,-0.070
'0:03.228',0.100,0.070,0.040,-0.060
'0:03.230',0.080,0.090,0.070,-0.040
'0:03.232',0.070,0.100,0.070,-0.020
'0:03.234',0.090,0.100,0.060,-0.030
'0:03.236',0.100,0.090,0.050,-0.040
'0:03.238',0.100,0.070,0.040,-0.060
'0:03.240',0.100,0.060,0.020,-0.080
'0:03.242',0.120,0.040,0.010,-0.090
'0:03.244',0.110,0.050,0.000,-0.090
'0:03.246',0.120,0.040,-0.030,-0.110
'0:03.248',0.140,0.030,-0.070,-0.150
'0:03.250',0.180,0.000,-0.130,-0.210
'0:03.252',0.200,-0.020,-0.200,-0.270
'0:03.254',0.220,-0.040,-0.220,-0.300
'0:03.256',0.230,-0.010,-0.170,-0.280
'0:03.258',0.240,0.070,-0.020,-0.170
'0:03.260',0.240,0.210,0.240,0.000
'0:03.262',0.250,0.420,0.610,0.220
'0:03.264',0.310,0.730,1.050,0.480
'0:03.266',0.420,1.130,1.570,0.740
'0:03.268',0.570,1.590,2.140,1.020
'0:03.270',0.720,2.090,2.740,1.310
'0:03.272',0.850,2.590,3.360,1.640
'0:03.274',0.960,3.090,3.970,1.980
'0:03.276',1.070,3.580,4.550,2.320
'0:03.278',1.140,4.030,5.080,2.630
'0:03.280',1.180,4.390,5.470,2.840
'0:03.282',1.220,4.600,5.680,2.950
'0:03.284',1.200,4.660,5.700,2.980
'0:03.286',1.120,4.580,5.540,2.940
'0:03.288',0.970,4.270,5.150,2.780
'0:03.290',0.750,3.720,4.530,2.540
'0:03.292',0.500,3.060,3.780,2.240
'0:03.294',0.280,2.410,3.050,1.900
'0:03.296',0.120,1.840,2.390,1.560
'0:03.298',0.020,1.380,1.820,1.250
'0:03.300',-0.040,1.000,1.330,0.970
'0:03.302',-0.080,0.670,0.900,0.690
'0:03.304',-0.100,0.390,0.520,0.440
'0:03.306',-0.100,0.140,0.220,0.220
'0:03.308',-0.110,-0.060,-0.040,0.030
'0:03.310',-0.120,-0.230,-0.270,-0.110
'0:03.312',-0.130,-0.360,-0.450,-0.230
'0:03.314',-0.130,-0.450,-0.610,-0.320
'0:03.316',-0.130,-0.550,-0.740,-0.400
'0:03.318',-0.130,-0.640,-0.850,-0.490
'0:03.320',-0.120,-0.720,-0.920,-0.570
'0:03.322',-0.100,-0.770,-0.990,-0.630
'0:03.324',-0.090,-0.810,-1.040,-0.670
'0:03.326',-0.100,-0.840,-1.080,-0.700
'0:03.328',-0.120,-0.850,-1.100,-0.710
'0:03.330',-0.120,-0.850,-1.120,-0.710
'0:03.332',-0.120,-0.850,-1.130,-0.720
'0:03.334',-0.100,-0.860,-1.130,-0.740
'0:03.336',-0.090,-0.870,-1.130,-0.750
'0:03.338',-0.080,-0.880,-1.130,-0.780
'0:03.340',-0.070,-0.880,-1.130,-0.790
'0:03.342',-0.060,-0.850,-1.130,-0.760
'0:03.344',-0.060,-0.830,-1.110,-0.730
'0:03.346',-0.070,-0.820,-1.100,-0.720
'0:03.348',-0.070,-0.810,-1.080,-0.720
'0:03.350',-0.050,-0.790,-1.060,-0.730
'0:03.352',-0.030,-0.780,-1.040,-0.740
'0:03.354',-0.020,-0.770,-1.030,-0.760
'0:03.356',-0.020,-0.750,-1.020,-0.750
'0:03.358',-0.030,-0.730,-1.000,-0.720
'0:03.360',-0.030,-0.720,-0.980,-0.700
'0:03.362',-0.030,-0.700,-0.970,-0.680
'0:03.364',-0.030,-0.680,-0.960,-0.660
'0:03.366',-0.030,-0.680,-0.940,-0.660
'0:03.368',-0.030,-0.660,-0.920,-0.660
'0:03.370',-0.020,-0.640,-0.910,-0.650
'0:03.372',0.000,-0.630,-0.900,-0.650
'0:03.374',0.010,-0.640,-0.890,-0.650
'0:03.376',0.030,-0.630,-0.880,-0.640
'0:03.378',0.020,-0.620,-0.870,-0.630
'0:03.380',0.000,-0.610,-0.850,-0.610
'0:03.382',0.000,-0.600,-0.840,-0.590
'0:03.384',0.000,-0.570,-0.810,-0.550
'0:03.386',-0.020,-0.540,-0.770,-0.520
'0:03.388',0.000,-0.530,-0.760,-0.550
'0:03.390',0.020,-0.530,-0.760,-0.560
'0:03.392',0.050,-0.530,-0.750,-0.560
'0:03.394',0.060,-0.520,-0.740,-0.550
'0:03.396',0.060,-0.500,-0.740,-0.530
'0:03.398',0.060,-0.480,-0.730,-0.520
'0:03.400',0.050,-0.470,-0.710,-0.520
'0:03.402',0.060,-0.470,-0.710,-0.530
'0:03.404',0.080,-0.470,-0.700,-0.560
'0:03.406',0.090,-0.470,-0.690,-0.570
'0:03.408',0.090,-0.470,-0.680,-0.570
'0:03.410',0.090,-0.460,-0.670,-0.560
'0:03.412',0.070,-0.430,-0.660,-0.540
'0:03.414',0.060,-0.410,-0.660,-0.520
'0:03.416',0.070,-0.400,-0.660,-0.510
'0:03.418',0.090,-0.390,-0.660,-0.520
'0:03.420',0.100,-0.370,-0.670,-0.540
'0:03.422',0.100,-0.360,-0.660,-0.550
'0:03.424',0.120,-0.340,-0.650,-0.560
'0:03.426',0.120,-0.320,-0.640,-0.550
'0:03.428',0.100,-0.300,-0.610,-0.510
'0:03.430',0.090,-0.300,-0.600,-0.490
'0:03.432',0.100,-0.290,-0.600,-0.500
'0:03.434',0.120,-0.270,-0.600,-0.520
'0:03.436',0.140,-0.270,-0.600,-0.540
'0:03.438',0.170,-0.270,-0.620,-0.560
'0:03.440',0.190,-0.250,-0.630,-0.580
'0:03.442',0.200,-0.230,-0.630,-0.570
'0:03.444',0.210,-0.220,-0.630,-0.570
'0:03.446',0.190,-0.210,-0.620,-0.570
'0:03.448',0.200,-0.200,-0.640,-0.570
'0:03.450',0.240,-0.190,-0.660,-0.590
'0:03.452',0.270,-0.180,-0.660,-0.620
'0:03.454',0.280,-0.150,-0.660,-0.640
'0:03.456',0.300,-0.120,-0.660,-0.650
'0:03.458',0.330,-0.110,-0.650,-0.660
'0:03.460',0.340,-0.100,-0.630,-0.670
'0:03.462',0.340,-0.100,-0.600,-0.660
'0:03.464',0.340,-0.090,-0.590,-0.650
'0:03.466',0.350,-0.090,-0.580,-0.650
'0:03.468',0.370,-0.090,-0.560,-0.640
'0:03.470',0.380,-0.070,-0.550,-0.630
'0:03.472',0.390,-0.060,-0.550,-0.640
'0:03.474',0.420,-0.060,-0.540,-0.650
'0:03.476',0.430,-0.050,-0.530,-0.650
'0:03.478',0.420,-0.040,-0.530,-0.650
'0:03.480',0.400,-0.030,-0.530,-0.630
'0:03.482',0.390,-0.020,-0.520,-0.610
'0:03.484',0.370,0.000,-0.500,-0.600
'0:03.486',0.370,-0.010,-0.500,-0.610
'0:03.488',0.360,-0.020,-0.500,-0.620
'0:03.490',0.360,-0.030,-0.510,-0.620
'0:03.492',0.350,-0.050,-0.500,-0.610
'0:03.494',0.330,-0.060,-0.480,-0.590
'0:03.496',0.310,-0.060,-0.470,-0.550
'0:03.498',0.290,-0.050,-0.450,-0.500
'0:03.500',0.280,-0.070,-0.430,-0.470
'0:03.502',0.280,-0.080,-0.410,-0.460
'0:03.504',0.260,-0.100,-0.400,-0.440
'0:03.506',0.230,-0.110,-0.380,-0.410
'0:03.508',0.190,-0.120,-0.360,-0.370
'0:03.510',0.150,-0.130,-0.340,-0.320
'0:03.512',0.110,-0.110,-0.310,-0.260
'0:03.514',0.060,-0.110,-0.290,-0.210
'0:03.516',0.020,-0.130,-0.270,-0.170
'0:03.518',0.000,-0.140,-0.240,-0.150
'0:03.520',-0.030,-0.150,-0.210,-0.140
'0:03.522',-0.060,-0.150,-0.190,-0.130
'0:03.524',-0.080,-0.160,-0.160,-0.090
'0:03.526',-0.100,-0.150,-0.130,-0.040
'0:03.528',-0.130,-0.160,-0.110,0.000
'0:03.530',-0.150,-0.160,-0.080,0.030
'0:03.532',-0.180,-0.170,-0.050,0.080
'0:03.534',-0.210,-0.170,-0.030,0.120
'0:03.536',-0.220,-0.170,-0.020,0.130
'0:03.538',-0.230,-0.150,0.000,0.150
'0:03.540',-0.240,-0.140,0.020,0.200
'0:03.542',-0.260,-0.140,0.040,0.240
'0:03.544',-0.280,-0.140,0.040,0.250
'0:03.546',-0.300,-0.140,0.060,0.280
'0:03.548',-0.310,-0.140,0.070,0.300
'0:03.550',-0.310,-0.130,0.090,0.320
'0:03.552',-0.310,-0.110,0.100,0.320
'0:03.554',-0.310,-0.100,0.110,0.310
'0:03.556',-0.300,-0.100,0.100,0.300
'0:03.558',-0.280,-0.120,0.100,0.300
'0:03.560',-0.280,-0.130,0.110,0.290
'0:03.562',-0.290,-0.120,0.120,0.290
'0:03.564',-0.300,-0.110,0.130,0.310
'0:03.566',-0.290,-0.100,0.140,0.340
'0:03.568',-0.300,-0.090,0.150,0.350
'0:03.570',-0.290,-0.090,0.150,0.330
'0:03.572',-0.260,-0.090,0.140,0.290
'0:03.574',-0.240,-0.110,0.130,0.270
'0:03.576',-0.230,-0.120,0.130,0.260
'0:03.578',-0.250,-0.120,0.130,0.270
'0:03.580',-0.280,-0.110,0.130,0.280
'0:03.582',-0.290,-0.080,0.140,0.300
'0:03.584',-0.290,-0.080,0.140,0.300
'0:03.586',-0.270,-0.080,0.120,0.270
'0:03.588',-0.240,-0.080,0.100,0.240
'0:03.590',-0.230,-0.080,0.110,0.230
'0:03.592',-0.210,-0.080,0.110,0.230
'0:03.594',-0.210,-0.060,0.110,0.230
'0:03.596',-0.210,-0.040,0.120,0.250
'0:03.598',-0.220,-0.050,0.130,0.260
'0:03.600',-0.200,-0.060,0.120,0.250
'0:03.602',-0.180,-0.070,0.120,0.230
'0:03.604',-0.170,-0.080,0.110,0.200
'0:03.606',-0.160,-0.080,0.100,0.190
'0:03.608',-0.150,-0.090,0.100,0.190
'0:03.610',-0.160,-0.080,0.100,0.210
'0:03.612',-0.180,-0.080,0.100,0.220
'0:03.614',-0.180,-0.080,0.100,0.220
'0:03.616',-0.170,-0.080,0.100,0.230
'0:03.618',-0.140,-0.080,0.100,0.210
'0:03.620',-0.120,-0.070,0.090,0.180
'0:03.622',-0.110,-0.070,0.070,0.160
'0:03.624',-0.110,-0.060,0.070,0.160
'0:03.626',-0.110,-0.060,0.080,0.160
'0:03.628',-0.110,-0.050,0.090,0.170
'0:03.630',-0.110,-0.050,0.090,0.180
'0:03.632',-0.110,-0.050,0.090,0.180
'0:03.634',-0.100,-0.060,0.070,0.170
'0:03.636',-0.090,-0.040,0.060,0.160
'0:03.638',-0.080,-0.010,0.060,0.160
'0:03.640',-0.070,-0.010,0.060,0.160
'0:03.642',-0.060,-0.020,0.060,0.160
'0:03.644',-0.060,-0.010,0.050,0.170
'0:03.646',-0.070,-0.010,0.060,0.170
'0:03.648',-0.070,-0.010,0.070,0.170
'0:03.650',-0.060,-0.010,0.070,0.160
'0:03.652',-0.060,0.000,0.070,0.140
'0:03.654',-0.050,0.000,0.060,0.120
'0:03.656',-0.030,0.000,0.050,0.110
'0:03.658',-0.030,-0.020,0.050,0.100
'0:03.660',-0.020,-0.040,0.050,0.110
'0:03.662',-0.040,-0.040,0.050,0.130
'0:03.664',-0.050,-0.040,0.060,0.160
'0:03.666',-0.050,-0.010,0.070,0.170
'0:03.668',-0.050,0.000,0.070,0.150
'0:03.670',-0.030,0.000,0.070,0.120
'0:03.672',-0.010,0.000,0.070,0.090
'0:03.674',0.000,0.000,0.080,0.090
'0:03.676',0.020,-0.010,0.070,0.100
'0:03.678',0.010,0.000,0.080,0.110
'0:03.680',0.000,0.030,0.090,0.110
'0:03.682',-0.010,0.040,0.090,0.120
'0:03.684',0.000,0.050,0.070,0.110
'0:03.686',0.010,0.040,0.060,0.090
'0:03.688',0.030,0.040,0.050,0.060
'0:03.690',0.040,0.030,0.050,0.050
'0:03.692',0.040,0.030,0.060,0.040
'0:03.694',0.020,0.050,0.080,0.050
'0:03.696',0.010,0.060,0.090,0.070
'0:03.698',0.000,0.060,0.110,0.080
'0:03.700',0.000,0.040,0.120,0.090
'0:03.702',0.010,0.030,0.130,0.090
'0:03.704',0.010,0.030,0.110,0.070
'0:03.706',0.010,0.030,0.100,0.060
'0:03.708',0.010,0.030,0.090,0.070
'0:03.710',0.010,0.020,0.090,0.080
'0:03.712',0.000,0.020,0.080,0.100
'0:03.714',0.000,0.020,0.080,0.110
'0:03.716',0.000,0.040,0.080,0.100
'0:03.718',0.000,0.050,0.080,0.080
'0:03.720',0.000,0.050,0.070,0.070
'0:03.722',0.000,0.060,0.060,0.060
'0:03.724',0.010,0.040,0.040,0.050
'0:03.726',0.010,0.030,0.040,0.060
'0:03.728',0.000,0.020,0.050,0.070
'0:03.730',0.000,0.020,0.040,0.080
'0:03.732',0.000,0.020,0.040,0.090
'0:03.734',0.000,0.020,0.040,0.090
'0:03.736',0.000,0.040,0.040,0.090
'0:03.738',0.000,0.040,0.040,0.070
'0:03.740',0.020,0.030,0.040,0.070
'0:03.742',0.020,0.030,0.050,0.060
'0:03.744',0.020,0.030,0.060,0.060
'0:03.746',0.010,0.020,0.060,0.060
'0:03.748',0.010,0.030,0.060,0.070
'0:03.750',0.010,0.030,0.060,0.090
'0:03.752',0.000,0.040,0.060,0.090
'0:03.754',0.010,0.040,0.060,0.060
'0:03.756',0.020,0.030,0.060,0.040
'0:03.758',0.020,0.020,0.070,0.040
'0:03.760',0.020,0.020,0.080,0.050
'0:03.762',0.010,0.030,0.080,0.040
'0:03.764',0.000,0.040,0.090,0.060
'0:03.766',-0.010,0.030,0.100,0.080
'0:03.768',0.000,0.020,0.090,0.080
'0:03.770',0.000,0.030,0.080,0.050
'0:03.772',0.020,0.040,0.070,0.040
'0:03.774',0.020,0.040,0.070,0.030
'0:03.776',0.020,0.040,0.080,0.020
'0:03.778',0.010,0.050,0.100,0.040
'0:03.780',0.000,0.060,0.090,0.060
'0:03.782',0.000,0.050,0.070,0.060
'0:03.784',0.000,0.030,0.060,0.040
'0:03.786',0.000,0.030,0.060,0.020
'0:03.788',0.010,0.020,0.060,0.000
'0:03.790',0.020,0.030,0.040,0.010
'0:03.792',0.020,0.040,0.040,0.040
'0:03.794',0.010,0.050,0.050,0.070
'0:03.796',0.000,0.050,0.060,0.070
'0:03.798',0.000,0.050,0.060,0.070
'0:03.800',0.000,0.050,0.060,0.060
'0:03.802',0.010,0.050,0.060,0.040
'0:03.804',0.020,0.050,0.050,0.030
'0:03.806',0.010,0.070,0.040,0.030
'0:03.808',0.010,0.070,0.040,0.030
'0:03.810',0.000,0.060,0.030,0.030
'0:03.812',0.000,0.060,0.030,0.050
'0:03.814',-0.010,0.050,0.030,0.060
'0:03.816',-0.020,0.030,0.040,0.060
'0:03.818',-0.020,0.020,0.060,0.040
'0:03.820',-0.020,0.020,0.060,0.030
'0:03.822',-0.020,0.010,0.050,0.020
'0:03.824',-0.020,0.000,0.040,0.010
'0:03.826',-0.020,-0.010,0.030,0.020
'0:03.828',-0.020,0.000,0.030,0.020
'0:03.830',-0.050,-0.010,0.040,0.040
'0:03.832',-0.070,-0.010,0.040,0.050
'0:03.834',-0.090,-0.020,0.050,0.070
'0:03.836',-0.090,-0.030,0.050,0.070
'0:03.838',-0.060,-0.030,0.050,0.050
'0:03.840',-0.050,-0.040,0.040,0.040
'0:03.842',-0.050,-0.040,0.030,0.060
'0:03.844',-0.040,-0.040,0.020,0.070
'0:03.846',-0.060,-0.030,0.030,0.080
'0:03.848',-0.070,-0.020,0.050,0.110
'0:03.850',-0.080,0.000,0.050,0.140
'0:03.852',-0.080,0.000,0.050,0.120
'0:03.854',-0.060,0.000,0.060,0.100
'0:03.856',-0.050,0.000,0.060,0.090
'0:03.858',-0.040,0.000,0.060,0.080
'0:03.860',-0.030,0.000,0.080,0.090
'0:03.862',-0.040,0.020,0.100,0.100
'0:03.864',-0.050,0.030,0.100,0.110
'0:03.866',-0.040,0.040,0.110,0.110
'0:03.868',-0.030,0.030,0.100,0.090
'0:03.870',-0.010,0.020,0.100,0.070
'0:03.872',0.000,0.020,0.090,0.050
'0:03.874',0.010,0.020,0.080,0.050
'0:03.876',0.000,0.020,0.090,0.070
'0:03.878',-0.020,0.040,0.100,0.090
'0:03.880',-0.030,0.040,0.090,0.100
'0:03.882',-0.030,0.040,0.090,0.100
'0:03.884',-0.020,0.040,0.080,0.090
'0:03.886',-0.010,0.040,0.070,0.070
'0:03.888',0.000,0.040,0.060,0.040
'0:03.890',0.010,0.050,0.050,0.030
'0:03.892',0.020,0.060,0.050,0.040
'0:03.894',0.030,0.070,0.040,0.050
'0:03.896',0.040,0.080,0.040,0.040
'0:03.898',0.040,0.080,0.040,0.030
'0:03.900',0.040,0.070,0.040,0.000
'0:03.902',0.050,0.070,0.030,-0.010
'0:03.904',0.070,0.080,0.030,-0.040
'0:03.906',0.080,0.080,0.030,-0.040
'0:03.908',0.090,0.060,0.030,-0.040
'0:03.910',0.090,0.050,0.030,-0.040
'0:03.912',0.080,0.050,0.030,-0.040
'0:03.914',0.070,0.050,0.030,-0.030
'0:03.916',0.060,0.050,0.030,-0.020
'0:03.918',0.070,0.070,0.030,-0.020
'0:03.920',0.070,0.080,0.030,-0.030
'0:03.922',0.090,0.070,0.030,-0.040
'0:03.924',0.090,0.070,0.030,-0.040
'0:03.926',0.100,0.050,0.030,-0.040
'0:03.928',0.090,0.040,0.040,-0.030
'0:03.930',0.080,0.040,0.050,-0.020
'0:03.932',0.070,0.060,0.040,-0.010
'0:03.934',0.080,0.060,0.040,0.000
'0:03.936',0.090,0.060,0.030,-0.020
'0:03.938',0.100,0.050,0.000,-0.060
'0:03.940',0.110,0.030,-0.050,-0.100
'0:03.942',0.130,0.000,-0.100,-0.150
'0:03.944',0.150,-0.010,-0.160,-0.210
'0:03.946',0.160,-0.040,-0.210,-0.260
'0:03.948',0.160,-0.030,-0.220,-0.260
'0:03.950',0.180,-0.010,-0.180,-0.250
'0:03.952',0.220,0.040,-0.040,-0.190
'0:03.954',0.240,0.160,0.190,-0.040
'0:03.956',0.260,0.340,0.530,0.160
'0:03.958',0.310,0.620,0.950,0.410
'0:03.960',0.410,1.020,1.450,0.680
'0:03.962',0.520,1.480,2.030,0.970
'0:03.964',0.660,1.970,2.640,1.280
'0:03.966',0.800,2.480,3.260,1.610
'0:03.968',0.930,2.990,3.880,1.940
'0:03.970',1.060,3.510,4.500,2.280
'0:03.972',1.160,3.990,5.060,2.580
'0:03.974',1.230,4.400,5.490,2.820
'0:03.976',1.260,4.660,5.750,2.980
'0:03.978',1.240,4.770,5.830,3.050
'0:03.980',1.160,4.720,5.740,3.060
'0:03.982',1.020,4.470,5.420,2.950
'0:03.984',0.800,3.960,4.850,2.720
'0:03.986',0.530,3.290,4.120,2.400
'0:03.988',0.310,2.610,3.340,2.050
'0:03.990',0.150,2.010,2.620,1.700
'0:03.992',0.050,1.500,1.990,1.370
'0:03.994',-0.010,1.070,1.450,1.060
'0:03.996',-0.060,0.710,0.990,0.780
'0:03.998',-0.090,0.400,0.590,0.550
'0:04.000',-0.100,0.150,0.250,0.330
'0:04.002',-0.110,-0.050,-0.040,0.120
'0:04.004',-0.110,-0.230,-0.280,-0.050
'0:04.006',-0.110,-0.390,-0.480,-0.200
'0:04.008',-0.100,-0.520,-0.640,-0.320
'0:04.010',-0.100,-0.630,-0.770,-0.410
'0:04.012',-0.100,-0.710,-0.870,-0.480
'0:04.014',-0.110,-0.770,-0.960,-0.540
'0:04.016',-0.120,-0.810,-1.010,-0.590
'0:04.018',-0.120,-0.830,-1.070,-0.640
'0:04.020',-0.120,-0.870,-1.120,-0.700
'0:04.022',-0.110,-0.890,-1.150,-0.750
'0:04.024',-0.090,-0.900,-1.180,-0.780
'0:04.026',-0.090,-0.910,-1.200,-0.790
'0:04.028',-0.090,-0.910,-1.210,-0.790
'0:04.030',-0.100,-0.910,-1.220,-0.780
'0:04.032',-0.100,-0.890,-1.210,-0.750
'0:04.034',-0.080,-0.880,-1.200,-0.750
'0:04.036',-0.060,-0.880,-1.180,-0.770
'0:04.038',-0.040,-0.870,-1.160,-0.790
'0:04.040',-0.030,-0.860,-1.150,-0.790
'0:04.042',-0.030,-0.840,-1.130,-0.790
'0:04.044',-0.030,-0.820,-1.110,-0.770
'0:04.046',-0.040,-0.790,-1.090,-0.740
'0:04.048',-0.050,-0.780,-1.060,-0.720
'0:04.050',-0.040,-0.770,-1.030,-0.700
'0:04.052',-0.030,-0.760,-1.020,-0.700
'0:04.054',0.000,-0.760,-1.010,-0.720
'0:04.056',0.010,-0.750,-0.990,-0.720
'0:04.058',0.020,-0.730,-0.980,-0.710
'0:04.060',0.000,-0.700,-0.960,-0.680
'0:04.062',-0.010,-0.680,-0.930,-0.660
'0:04.064',-0.020,-0.670,-0.920,-0.640
'0:04.066',-0.010,-0.660,-0.910,-0.630
'0:04.068',0.000,-0.650,-0.900,-0.630
'0:04.070',0.000,-0.640,-0.890,-0.640
'0:04.072',0.010,-0.620,-0.880,-0.650
'0:04.074',0.010,-0.600,-0.870,-0.640
'0:04.076',0.010,-0.590,-0.870,-0.630
'0:04.078',0.020,-0.570,-0.850,-0.620
'0:04.080',0.020,-0.560,-0.850,-0.620
'0:04.082',0.030,-0.550,-0.830,-0.620
'0:04.084',0.040,-0.540,-0.820,-0.610
'0:04.086',0.050,-0.530,-0.810,-0.610
'0:04.088',0.050,-0.500,-0.800,-0.600
'0:04.090',0.040,-0.490,-0.800,-0.590
'0:04.092',0.050,-0.490,-0.780,-0.580
'0:04.094',0.050,-0.480,-0.770,-0.570
'0:04.096',0.040,-0.470,-0.760,-0.560
'0:04.098',0.050,-0.460,-0.750,-0.560
'0:04.100',0.070,-0.430,-0.740,-0.560
'0:04.102',0.070,-0.410,-0.720,-0.570
'0:04.104',0.090,-0.400,-0.710,-0.590
'0:04.106',0.100,-0.400,-0.710,-0.600
'0:04.108',0.100,-0.400,-0.700,-0.610
'0:04.110',0.110,-0.400,-0.680,-0.600
'0:04.112',0.100,-0.380,-0.670,-0.600
'0:04.114',0.100,-0.370,-0.660,-0.580
'0:04.116',0.110,-0.340,-0.650,-0.570
'0:04.118',0.130,-0.320,-0.660,-0.570
'0:04.120',0.150,-0.320,-0.660,-0.600
'0:04.122',0.160,-0.320,-0.670,-0.620
'0:04.124',0.170,-0.310,-0.670,-0.610
'0:04.126',0.180,-0.300,-0.660,-0.600
'0:04.128',0.190,-0.280,-0.650,-0.590
'0:04.130',0.190,-0.240,-0.620,-0.560
'0:04.132',0.190,-0.220,-0.620,-0.560
'0:04.134',0.200,-0.220,-0.630,-0.580
'0:04.136',0.220,-0.210,-0.630,-0.610
'0:04.138',0.250,-0.210,-0.630,-0.630
'0:04.140',0.270,-0.200,-0.630,-0.640
'0:04.142',0.300,-0.200,-0.640,-0.640
'0:04.144',0.290,-0.180,-0.630,-0.630
'0:04.146',0.290,-0.160,-0.610,-0.620
'0:04.148',0.300,-0.150,-0.600,-0.630
'0:04.150',0.310,-0.130,-0.600,-0.650
'0:04.152',0.330,-0.120,-0.610,-0.670
'0:04.154',0.350,-0.110,-0.610,-0.700
'0:04.156',0.370,-0.100,-0.600,-0.710
'0:04.158',0.370,-0.080,-0.610,-0.710
'0:04.160',0.370,-0.080,-0.620,-0.690
'0:04.162',0.390,-0.080,-0.600,-0.670
'0:04.164',0.410,-0.070,-0.580,-0.660
'0:04.166',0.440,-0.060,-0.580,-0.660
'0:04.168',0.460,-0.050,-0.580,-0.680
'0:04.170',0.470,-0.040,-0.570,-0.690
'0:04.172',0.460,0.000,-0.570,-0.690
'0:04.174',0.460,0.010,-0.550,-0.690
'0:04.176',0.460,0.010,-0.540,-0.700
'0:04.178',0.460,0.010,-0.530,-0.680
'0:04.180',0.460,0.000,-0.510,-0.660
'0:04.182',0.450,0.000,-0.500,-0.640
'0:04.184',0.440,-0.010,-0.500,-0.620
'0:04.186',0.430,0.000,-0.480,-0.590
'0:04.188',0.430,0.000,-0.470,-0.570
'0:04.190',0.430,-0.010,-0.470,-0.570
'0:04.192',0.400,-0.050,-0.470,-0.550
'0:04.194',0.370,-0.070,-0.450,-0.520
'0:04.196',0.330,-0.070,-0.420,-0.480
'0:04.198',0.310,-0.080,-0.400,-0.450
'0:04.200',0.270,-0.080,-0.390,-0.410
'0:04.202',0.240,-0.090,-0.370,-0.390
'0:04.204',0.230,-0.120,-0.360,-0.380
'0:04.206',0.210,-0.130,-0.340,-0.340
'0:04.208',0.170,-0.150,-0.310,-0.290
'0:04.210',0.130,-0.170,-0.280,-0.250
'0:04.212',0.080,-0.170,-0.250,-0.200
'0:04.214',0.040,-0.160,-0.220,-0.140
'0:04.216',0.000,-0.160,-0.190,-0.090
'0:04.218',-0.010,-0.170,-0.160,-0.070
'0:04.220',-0.050,-0.180,-0.130,-0.060
'0:04.222',-0.070,-0.180,-0.110,-0.030
'0:04.224',-0.090,-0.190,-0.090,0.000
'0:04.226',-0.110,-0.210,-0.060,0.050
'0:04.228',-0.140,-0.200,-0.040,0.100
'0:04.230',-0.180,-0.190,-0.010,0.140
'0:04.232',-0.200,-0.190,0.000,0.160
'0:04.234',-0.210,-0.190,0.020,0.190
'0:04.236',-0.210,-0.190,0.030,0.190
'0:04.238',-0.200,-0.190,0.040,0.190
'0:04.240',-0.200,-0.180,0.050,0.200
'0:04.242',-0.220,-0.160,0.080,0.210
'0:04.244',-0.240,-0.150,0.080,0.220
'0:04.246',-0.240,-0.160,0.090,0.240
'0:04.248',-0.250,-0.170,0.100,0.270
'0:04.250',-0.260,-0.170,0.110,0.290
'0:04.252',-0.270,-0.170,0.110,0.280
'0:04.254',-0.260,-0.170,0.100,0.260
'0:04.256',-0.250,-0.150,0.100,0.260
'0:04.258',-0.260,-0.140,0.110,0.270
'0:04.260',-0.260,-0.150,0.110,0.280
'0:04.262',-0.270,-0.150,0.120,0.280
'0:04.264',-0.270,-0.150,0.120,0.280
'0:04.266',-0.260,-0.140,0.130,0.270
'0:04.268',-0.240,-0.140,0.130,0.250
'0:04.270',-0.240,-0.110,0.130,0.240
'0:04.272',-0.230,-0.100,0.130,0.230
'0:04.274',-0.210,-0.110,0.120,0.230
'0:04.276',-0.210,-0.120,0.110,0.230
'0:04.278',-0.210,-0.130,0.110,0.230
'0:04.280',-0.220,-0.140,0.110,0.240
'0:04.282',-0.220,-0.130,0.110,0.250
'0:04.284',-0.210,-0.100,0.100,0.260
'0:04.286',-0.180,-0.100,0.090,0.240
'0:04.288',-0.160,-0.090,0.090,0.210
'0:04.290',-0.150,-0.090,0.080,0.200
'0:04.292',-0.140,-0.090,0.070,0.210
'0:04.294',-0.150,-0.090,0.060,0.220
'0:04.296',-0.160,-0.090,0.060,0.220
'0:04.298',-0.180,-0.070,0.080,0.240
'0:04.300',-0.190,-0.060,0.090,0.250
'0:04.302',-0.190,-0.070,0.090,0.230
'0:04.304',-0.180,-0.070,0.080,0.210
'0:04.306',-0.160,-0.070,0.080,0.180
'0:04.308',-0.150,-0.070,0.070,0.170
'0:04.310',-0.140,-0.070,0.060,0.170
'0:04.312',-0.150,-0.050,0.070,0.190
'0:04.314',-0.160,-0.030,0.080,0.210
'0:04.316',-0.160,-0.030,0.080,0.210
'0:04.318',-0.140,-0.030,0.070,0.190
'0:04.320',-0.130,-0.030,0.060,0.170
'0:04.322',-0.110,-0.030,0.050,0.160
'0:04.324',-0.090,-0.030,0.060,0.160
'0:04.326',-0.090,-0.030,0.080,0.170
'0:04.328',-0.110,-0.030,0.090,0.180
'0:04.330',-0.120,-0.040,0.080,0.190
'0:04.332',-0.120,-0.030,0.070,0.200
'0:04.334',-0.120,-0.030,0.070,0.200
'0:04.336',-0.110,-0.020,0.070,0.190
'0:04.338',-0.090,-0.020,0.070,0.170
'0:04.340',-0.080,-0.010,0.070,0.160
'0:04.342',-0.080,0.000,0.080,0.170
'0:04.344',-0.090,0.000,0.080,0.170
'0:04.346',-0.090,0.000,0.090,0.170
'0:04.348',-0.090,0.010,0.090,0.170
'0:04.350',-0.080,0.010,0.080,0.160
'0:04.352',-0.060,0.000,0.080,0.140
'0:04.354',-0.050,0.020,0.080,0.130
'0:04.356',-0.050,0.020,0.080,0.130
'0:04.358',-0.030,0.010,0.080,0.130
'0:04.360',-0.020,0.010,0.080,0.130
'0:04.362',-0.030,0.010,0.090,0.130
'0:04.364',-0.040,0.010,0.110,0.130
'0:04.366',-0.030,0.000,0.110,0.120
'0:04.368',-0.020,0.020,0.100,0.110
'0:04.370',-0.030,0.040,0.100,0.100
'0:04.372',-0.030,0.050,0.090,0.090
'0:04.374',-0.020,0.050,0.090,0.090
'0:04.376',-0.010,0.040,0.090,0.100
'0:04.378',-0.020,0.030,0.100,0.110
'0:04.380',-0.020,0.030,0.100,0.120
'0:04.382',-0.020,0.040,0.110,0.150
'0:04.384',-0.010,0.060,0.110,0.170
'0:04.386',0.000,0.060,0.100,0.150
'0:04.388',0.020,0.050,0.090,0.120
'0:04.390',0.030,0.050,0.080,0.100
'0:04.392',0.030,0.040,0.080,0.090
'0:04.394',0.030,0.040,0.090,0.090
'0:04.396',0.010,0.040,0.100,0.120
'0:04.398',0.010,0.050,0.110,0.140
'0:04.400',0.020,0.050,0.110,0.130
'0:04.402',0.030,0.050,0.110,0.090
'0:04.404',0.040,0.050,0.100,0.050
'0:04.406',0.040,0.050,0.080,0.040
'0:04.408',0.050,0.030,0.080,0.040
'0:04.410',0.040,0.030,0.090,0.060
'0:04.412',0.020,0.040,0.110,0.090
'0:04.414',0.010,0.050,0.120,0.100
'0:04.416',0.000,0.050,0.120,0.110
'0:04.418',0.010,0.040,0.100,0.090
'0:04.420',0.020,0.040,0.090,0.070
'0:04.422',0.020,0.030,0.090,0.050
'0:04.424',0.010,0.030,0.080,0.060
'0:04.426',0.000,0.040,0.080,0.080
'0:04.428',0.000,0.040,0.080,0.080
'0:04.430',-0.010,0.040,0.090,0.080
'0:04.432',-0.010,0.030,0.090,0.090
'0:04.434',-0.020,0.030,0.090,0.100
'0:04.436',-0.020,0.020,0.090,0.080
'0:04.438',0.000,0.030,0.080,0.050
'0:04.440',0.000,0.030,0.080,0.050
'0:04.442',0.000,0.010,0.070,0.060
'0:04.444',0.000,0.000,0.070,0.050
'0:04.446',0.000,0.010,0.080,0.060
'0:04.448',0.000,0.020,0.070,0.070
'0:04.450',0.000,0.020,0.060,0.070
'0:04.452',0.000,0.030,0.050,0.050
'0:04.454',-0.010,0.030,0.050,0.040
'0:04.456',-0.010,0.010,0.060,0.030
'0:04.458',0.000,0.010,0.060,0.030
'0:04.460',0.010,0.020,0.070,0.030
'0:04.462',0.000,0.020,0.070,0.040
'0:04.464',0.000,0.020,0.070,0.060
'0:04.466',0.000,0.030,0.070,0.080
'0:04.468',0.000,0.030,0.070,0.080
'0:04.470',0.000,0.020,0.070,0.060
'0:04.472',0.010,0.020,0.060,0.040
'0:04.474',0.020,0.010,0.050,0.030
'0:04.476',0.040,0.020,0.050,0.040
'0:04.478',0.030,0.030,0.060,0.040
'0:04.480',0.020,0.030,0.060,0.060
'0:04.482',0.010,0.040,0.060,0.080
'0:04.484',0.000,0.040,0.070,0.090
'0:04.486',0.010,0.040,0.070,0.060
'0:04.488',0.030,0.040,0.070,0.040
'0:04.490',0.050,0.040,0.070,0.030
'0:04.492',0.060,0.030,0.060,0.030
'0:04.494',0.050,0.040,0.070,0.050
'0:04.496',0.020,0.060,0.090,0.080
'0:04.498',0.010,0.070,0.100,0.090
'0:04.500',0.020,0.050,0.090,0.080
'0:04.502',0.030,0.040,0.080,0.060
'0:04.504',0.030,0.020,0.070,0.030
'0:04.506',0.030,0.010,0.050,0.020
'0:04.508',0.030,0.010,0.030,0.020
'0:04.510',0.020,0.010,0.030,0.050
'0:04.512',0.000,0.010,0.040,0.060
'0:04.514',-0.010,0.010,0.040,0.060
'0:04.516',-0.010,0.000,0.040,0.060
'0:04.518',0.000,0.000,0.020,0.050
'0:04.520',0.000,0.000,0.010,0.030
'0:04.522',0.010,0.000,0.000,0.030
'0:04.524',0.010,0.000,0.000,0.040
'0:04.526',0.000,0.000,0.000,0.050
'0:04.528',0.000,0.000,0.000,0.060
'0:04.530',-0.010,0.000,0.000,0.070
'0:04.532',-0.030,0.000,0.000,0.080
'0:04.534',-0.030,0.000,0.000,0.100
'0:04.536',-0.030,0.000,0.000,0.100
'0:04.538',-0.030,0.010,0.010,0.100
'0:04.540',-0.020,0.010,0.020,0.090
'0:04.542',-0.010,0.000,0.020,0.100
'0:04.544',-0.020,0.000,0.030,0.100
'0:04.546',-0.030,-0.010,0.040,0.110
'0:04.548',-0.030,-0.010,0.050,0.130
'0:04.550',-0.030,0.000,0.060,0.150
'0:04.552',-0.040,0.010,0.070,0.150
'0:04.554',-0.030,0.000,0.070,0.140
'0:04.556',-0.020,0.000,0.070,0.130
'0:04.558',0.000,-0.010,0.070,0.110
'0:04.560',0.000,-0.010,0.080,0.120
'0:04.562',0.000,0.000,0.090,0.130
'0:04.564',0.000,0.010,0.100,0.130
'0:04.566',-0.010,0.050,0.100,0.140
'0:04.568',-0.020,0.040,0.100,0.130
'0:04.570',-0.010,0.020,0.090,0.110
'0:04.572',0.000,0.010,0.090,0.090
'0:04.574',0.000,0.010,0.080,0.080
'0:04.576',0.000,0.000,0.070,0.070
'0:04.578',-0.010,0.010,0.070,0.070
'0:04.580',-0.020,0.030,0.080,0.090
'0:04.582',-0.010,0.040,0.080,0.090
'0:04.584',0.000,0.050,0.080,0.080
'0:04.586',0.010,0.060,0.070,0.060
'0:04.588',0.020,0.060,0.050,0.030
'0:04.590',0.030,0.050,0.040,0.020
'0:04.592',0.040,0.040,0.030,0.020
'0:04.594',0.020,0.050,0.020,0.030
'0:04.596',0.010,0.060,0.030,0.040
'0:04.598',0.010,0.060,0.030,0.040
'0:04.600',0.020,0.050,0.040,0.030
'0:04.602',0.040,0.040,0.030,0.010
'0:04.604',0.050,0.040,0.020,0.000
'0:04.606',0.070,0.050,0.010,0.000
'0:04.608',0.070,0.060,0.020,0.000
'0:04.610',0.060,0.070,0.020,0.020
'0:04.612',0.050,0.070,0.030,0.040
'0:04.614',0.040,0.070,0.030,0.060
'0:04.616',0.040,0.070,0.030,0.060
'0:04.618',0.040,0.060,0.030,0.060
'0:04.620',0.050,0.060,0.030,0.040
'0:04.622',0.060,0.070,0.030,0.040
'0:04.624',0.070,0.060,0.010,0.030
'0:04.626',0.070,0.050,0.020,0.030
'0:04.628',0.060,0.040,0.020,0.030
'0:04.630',0.040,0.040,0.010,0.030
'0:04.632',0.050,0.050,-0.010,0.010
'0:04.634',0.080,0.040,-0.040,-0.040
'0:04.636',0.100,0.040,-0.070,-0.090
'0:04.638',0.120,0.020,-0.130,-0.170
'0:04.640',0.140,-0.010,-0.190,-0.230
'0:04.642',0.180,-0.030,-0.210,-0.240
'0:04.644',0.190,-0.020,-0.150,-0.190
'0:04.646',0.190,0.050,0.000,-0.080
'0:04.648',0.180,0.190,0.250,0.090
'0:04.650',0.190,0.410,0.580,0.300
'0:04.652',0.260,0.710,1.000,0.510
'0:04.654',0.390,1.080,1.490,0.750
'0:04.656',0.520,1.510,2.040,1.010
'0:04.658',0.620,1.980,2.630,1.330
'0:04.660',0.710,2.450,3.220,1.680
'0:04.662',0.780,2.930,3.830,2.040
'0:04.664',0.820,3.390,4.370,2.380
'0:04.666',0.860,3.760,4.790,2.640
'0:04.668',0.900,4.010,5.040,2.780
'0:04.670',0.940,4.130,5.120,2.810
'0:04.672',0.920,4.100,5.030,2.770
'0:04.674',0.820,3.870,4.730,2.620
'0:04.676',0.620,3.410,4.200,2.410
'0:04.678',0.360,2.830,3.540,2.170
'0:04.680',0.150,2.230,2.880,1.900
'0:04.682',0.020,1.700,2.290,1.600
'0:04.684',-0.030,1.270,1.760,1.300
'0:04.686',-0.070,0.910,1.310,1.010
'0:04.688',-0.090,0.600,0.920,0.740
'0:04.690',-0.090,0.360,0.590,0.520
'0:04.692',-0.100,0.170,0.310,0.370
'0:04.694',-0.120,0.010,0.080,0.220
'0:04.696',-0.130,-0.140,-0.120,0.080
'0:04.698',-0.130,-0.250,-0.300,-0.030
'0:04.700',-0.140,-0.350,-0.450,-0.160
'0:04.702',-0.130,-0.440,-0.580,-0.280
'0:04.704',-0.100,-0.520,-0.690,-0.380
'0:04.706',-0.090,-0.560,-0.760,-0.430
'0:04.708',-0.090,-0.620,-0.810,-0.460
'0:04.710',-0.090,-0.660,-0.860,-0.490
'0:04.712',-0.090,-0.670,-0.900,-0.510
'0:04.714',-0.080,-0.670,-0.920,-0.540
'0:04.716',-0.080,-0.690,-0.950,-0.560
'0:04.718',-0.080,-0.700,-0.970,-0.590
'0:04.720',-0.080,-0.690,-0.990,-0.600
'0:04.722',-0.070,-0.700,-0.990,-0.620
'0:04.724',-0.050,-0.710,-1.000,-0.630
'0:04.726',-0.030,-0.720,-1.000,-0.620
'0:04.728',-0.040,-0.720,-0.990,-0.610
'0:04.730',-0.040,-0.710,-0.960,-0.620
'0:04.732',-0.030,-0.690,-0.940,-0.620
'0:04.734',-0.030,-0.680,-0.930,-0.610
'0:04.736',-0.020,-0.670,-0.930,-0.610
'0:04.738',-0.010,-0.650,-0.910,-0.630
'0:04.740',0.000,-0.630,-0.900,-0.640
'0:04.742',0.000,-0.620,-0.880,-0.630
'0:04.744',0.000,-0.610,-0.870,-0.610
'0:04.746',-0.020,-0.590,-0.840,-0.600
'0:04.748',-0.020,-0.570,-0.830,-0.580
'0:04.750',-0.030,-0.550,-0.810,-0.550
'0:04.752',-0.020,-0.540,-0.800,-0.560
'0:04.754',0.000,-0.530,-0.800,-0.570
'0:04.756',0.000,-0.520,-0.790,-0.560
'0:04.758',0.010,-0.520,-0.770,-0.540
'0:04.760',0.010,-0.510,-0.750,-0.530
'0:04.762',0.000,-0.480,-0.740,-0.520
'0:04.764',-0.020,-0.460,-0.720,-0.520
'0:04.766',-0.010,-0.450,-0.710,-0.520
'0:04.768',0.000,-0.450,-0.700,-0.520
'0:04.770',0.000,-0.450,-0.700,-0.540
'0:04.772',0.020,-0.440,-0.690,-0.550
'0:04.774',0.030,-0.420,-0.680,-0.540
'0:04.776',0.020,-0.410,-0.660,-0.510
'0:04.778',0.000,-0.390,-0.650,-0.490
'0:04.780',0.000,-0.380,-0.630,-0.480
'0:04.782',0.000,-0.380,-0.620,-0.460
'0:04.784',0.010,-0.360,-0.610,-0.450
'0:04.786',0.020,-0.350,-0.610,-0.460
'0:04.788',0.030,-0.340,-0.610,-0.480
'0:04.790',0.030,-0.320,-0.600,-0.480
'0:04.792',0.030,-0.290,-0.590,-0.460
'0:04.794',0.040,-0.280,-0.590,-0.450
'0:04.796',0.040,-0.270,-0.580,-0.420
'0:04.798',0.040,-0.270,-0.570,-0.410
'0:04.800',0.040,-0.260,-0.560,-0.410
'0:04.802',0.060,-0.260,-0.560,-0.420
'0:04.804',0.070,-0.240,-0.540,-0.430
'0:04.806',0.080,-0.220,-0.530,-0.440
'0:04.808',0.100,-0.210,-0.530,-0.450
'0:04.810',0.110,-0.200,-0.530,-0.460
'0:04.812',0.110,-0.190,-0.520,-0.450
'0:04.814',0.100,-0.190,-0.510,-0.440
'0:04.816',0.090,-0.180,-0.510,-0.450
'0:04.818',0.100,-0.170,-0.510,-0.450
'0:04.820',0.120,-0.150,-0.510,-0.470
'0:04.822',0.140,-0.130,-0.520,-0.490
'0:04.824',0.160,-0.130,-0.530,-0.500
'0:04.826',0.170,-0.130,-0.530,-0.500
'0:04.828',0.170,-0.110,-0.530,-0.490
'0:04.830',0.170,-0.100,-0.520,-0.490
'0:04.832',0.180,-0.090,-0.500,-0.460
'0:04.834',0.180,-0.060,-0.470,-0.440
'0:04.836',0.200,-0.050,-0.470,-0.480
'0:04.838',0.220,-0.050,-0.480,-0.510
'0:04.840',0.250,-0.050,-0.480,-0.530
'0:04.842',0.270,-0.050,-0.480,-0.530
'0:04.844',0.280,-0.040,-0.460,-0.530
'0:04.846',0.280,-0.020,-0.450,-0.520
'0:04.848',0.280,0.000,-0.440,-0.520
'0:04.850',0.310,0.000,-0.440,-0.530
'0:04.852',0.330,0.000,-0.460,-0.560
'0:04.854',0.330,0.000,-0.460,-0.590
'0:04.856',0.340,-0.010,-0.460,-0.600
'0:04.858',0.350,-0.010,-0.460,-0.600
'0:04.860',0.360,0.010,-0.440,-0.580
'0:04.862',0.360,0.030,-0.430,-0.560
'0:04.864',0.360,0.050,-0.420,-0.540
'0:04.866',0.360,0.050,-0.400,-0.530
'0:04.868',0.360,0.040,-0.400,-0.510
'0:04.870',0.380,0.040,-0.400,-0.530
'0:04.872',0.390,0.030,-0.400,-0.550
'0:04.874',0.380,0.020,-0.400,-0.530
'0:04.876',0.350,0.030,-0.390,-0.500
'0:04.878',0.340,0.020,-0.380,-0.480
'0:04.880',0.320,0.010,-0.370,-0.470
'0:04.882',0.320,0.000,-0.360,-0.460
'0:04.884',0.320,-0.010,-0.360,-0.440
'0:04.886',0.300,-0.020,-0.360,-0.430
'0:04.888',0.280,-0.030,-0.360,-0.420
'0:04.890',0.260,-0.040,-0.340,-0.400
'0:04.892',0.240,-0.050,-0.310,-0.380
'0:04.894',0.220,-0.060,-0.280,-0.330
'0:04.896',0.190,-0.060,-0.260,-0.280
'0:04.898',0.170,-0.080,-0.230,-0.230
'0:04.900',0.130,-0.100,-0.210,-0.190
'0:04.902',0.090,-0.100,-0.190,-0.160
'0:04.904',0.060,-0.090,-0.170,-0.130
'0:04.906',0.050,-0.100,-0.150,-0.130
'0:04.908',0.040,-0.120,-0.140,-0.110
'0:04.910',0.010,-0.140,-0.120,-0.070
'0:04.912',-0.010,-0.160,-0.100,-0.030
'0:04.914',-0.040,-0.170,-0.080,0.000
'0:04.916',-0.060,-0.150,-0.060,0.040
'0:04.918',-0.070,-0.120,-0.050,0.060
'0:04.920',-0.080,-0.130,-0.040,0.070
'0:04.922',-0.080,-0.130,-0.020,0.070
'0:04.924',-0.090,-0.150,-0.010,0.080
'0:04.926',-0.110,-0.180,0.000,0.120
'0:04.928',-0.140,-0.180,0.000,0.160
'0:04.930',-0.170,-0.160,0.010,0.200
'0:04.932',-0.180,-0.140,0.020,0.240
'0:04.934',-0.180,-0.130,0.020,0.240
'0:04.936',-0.160,-0.140,0.030,0.230
'0:04.938',-0.140,-0.140,0.040,0.210
'0:04.940',-0.130,-0.150,0.040,0.210
'0:04.942',-0.130,-0.160,0.050,0.220
'0:04.944',-0.150,-0.150,0.060,0.250
'0:04.946',-0.170,-0.120,0.080,0.280
'0:04.948',-0.180,-0.120,0.090,0.290
'0:04.950',-0.170,-0.120,0.080,0.290
'0:04.952',-0.150,-0.130,0.080,0.260
'0:04.954',-0.130,-0.140,0.080,0.230
'0:04.956',-0.110,-0.150,0.070,0.220
'0:04.958',-0.110,-0.140,0.070,0.220
'0:04.960',-0.130,-0.130,0.070,0.230
'0:04.962',-0.140,-0.120,0.070,0.250
'0:04.964',-0.130,-0.120,0.070,0.250
'0:04.966',-0.110,-0.140,0.070,0.240
'0:04.968',-0.100,-0.150,0.060,0.220
'0:04.970',-0.090,-0.150,0.060,0.190
'0:04.972',-0.080,-0.150,0.040,0.170
'0:04.974',-0.080,-0.130,0.030,0.170
'0:04.976',-0.080,-0.140,0.020,0.170
'0:04.978',-0.080,-0.150,0.020,0.170
'0:04.980',-0.090,-0.150,0.020,0.180
'0:04.982',-0.090,-0.150,0.040,0.200
'0:04.984',-0.080,-0.140,0.040,0.200
'0:04.986',-0.060,-0.130,0.040,0.180
'0:04.988',-0.060,-0.120,0.030,0.180
'0:04.990',-0.060,-0.120,0.020,0.160
'0:04.992',-0.060,-0.130,0.020,0.160
'0:04.994',-0.070,-0.130,0.010,0.170
'0:04.996',-0.090,-0.140,0.000,0.170
'0:04.998',-0.100,-0.150,0.010,0.180
'0:05.000',-0.080,-0.160,0.020,0.180
'0:05.002',-0.090,-0.150,0.040,0.180
'0:05.004',-0.090,-0.150,0.030,0.160
'0:05.006',-0.080,-0.150,0.030,0.140
'0:05.008',-0.060,-0.150,0.030,0.130
'0:05.010',-0.070,-0.150,0.020,0.130
'0:05.012',-0.090,-0.150,0.020,0.140
'0:05.014',-0.110,-0.140,0.030,0.160
'0:05.016',-0.130,-0.120,0.040,0.170
'0:05.018',-0.130,-0.130,0.030,0.160
'0:05.020',-0.120,-0.150,0.030,0.140
'0:05.022',-0.120,-0.160,0.030,0.130
'0:05.024',-0.120,-0.170,0.030,0.110
'0:05.026',-0.140,-0.180,0.030,0.120
'0:05.028',-0.150,-0.180,0.030,0.140
'0:05.030',-0.170,-0.170,0.040,0.170
'0:05.032',-0.170,-0.160,0.040,0.170
'0:05.034',-0.180,-0.170,0.040,0.170
'0:05.036',-0.190,-0.170,0.030,0.150
'0:05.038',-0.200,-0.160,0.030,0.130
'0:05.040',-0.210,-0.160,0.040,0.130
'0:05.042',-0.230,-0.150,0.050,0.120
'0:05.044',-0.250,-0.130,0.060,0.140
'0:05.046',-0.270,-0.120,0.060,0.160
'0:05.048',-0.290,-0.110,0.080,0.170
'0:05.050',-0.290,-0.120,0.090,0.170
'0:05.052',-0.290,-0.120,0.090,0.160
'0:05.054',-0.290,-0.120,0.080,0.130
'0:05.056',-0.290,-0.120,0.070,0.130
'0:05.058',-0.300,-0.100,0.070,0.150
'0:05.060',-0.300,-0.090,0.070,0.170
'0:05.062',-0.310,-0.080,0.070,0.180
'0:05.064',-0.320,-0.060,0.090,0.180
'0:05.066',-0.310,-0.030,0.110,0.180
'0:05.068',-0.310,-0.030,0.110,0.160
'0:05.070',-0.310,-0.010,0.090,0.140
'0:05.072',-0.310,0.020,0.090,0.140
'0:05.074',-0.310,0.030,0.090,0.130
'0:05.076',-0.320,0.030,0.100,0.140
'0:05.078',-0.340,0.040,0.110,0.150
'0:05.080',-0.360,0.050,0.120,0.160
'0:05.082',-0.370,0.050,0.110,0.160
'0:05.084',-0.390,0.050,0.110,0.180
'0:05.086',-0.420,0.070,0.120,0.190
'0:05.088',-0.440,0.080,0.130,0.190
'0:05.090',-0.430,0.070,0.130,0.180
'0:05.092',-0.440,0.050,0.110,0.180
'0:05.094',-0.450,0.040,0.110,0.200
'0:05.096',-0.480,0.050,0.120,0.220
'0:05.098',-0.500,0.060,0.130,0.230
'0:05.100',-0.520,0.070,0.120,0.230
'0:05.102',-0.520,0.060,0.110,0.220
'0:05.104',-0.520,0.050,0.110,0.190
'0:05.106',-0.520,0.030,0.090,0.180
'0:05.108',-0.520,0.010,0.080,0.200
'0:05.110',-0.540,0.000,0.080,0.230
'0:05.112',-0.570,0.000,0.090,0.250
'0:05.114',-0.590,0.010,0.090,0.260
'0:05.116',-0.600,0.010,0.100,0.270
'0:05.118',-0.590,0.000,0.090,0.260
'0:05.120',-0.590,0.000,0.080,0.240
'0:05.122',-0.580,-0.020,0.060,0.230
'0:05.124',-0.580,-0.040,0.060,0.230
'0:05.126',-0.590,-0.060,0.050,0.240
'0:05.128',-0.630,-0.050,0.070,0.290
'0:05.130',-0.680,-0.060,0.090,0.330
'0:05.132',-0.690,-0.070,0.090,0.350
'0:05.134',-0.680,-0.100,0.080,0.350
'0:05.136',-0.680,-0.120,0.080,0.340
'0:05.138',-0.700,-0.130,0.080,0.350
'0:05.140',-0.730,-0.150,0.090,0.360
'0:05.142',-0.750,-0.160,0.100,0.380
'0:05.144',-0.770,-0.180,0.100,0.400
'0:05.146',-0.810,-0.200,0.100,0.420
'0:05.148',-0.830,-0.230,0.110,0.450
'0:05.150',-0.850,-0.240,0.120,0.470
'0:05.152',-0.860,-0.250,0.110,0.470
'0:05.154',-0.860,-0.270,0.110,0.450
'0:05.156',-0.870,-0.270,0.120,0.450
'0:05.158',-0.890,-0.300,0.140,0.460
'0:05.160',-0.920,-0.330,0.160,0.500
'0:05.162',-0.950,-0.350,0.170,0.520
'0:05.164',-0.960,-0.360,0.180,0.530
'0:05.166',-0.950,-0.380,0.190,0.530
'0:05.168',-0.950,-0.380,0.200,0.530
'0:05.170',-0.960,-0.380,0.220,0.540
'0:05.172',-0.960,-0.400,0.220,0.550
'0:05.174',-0.940,-0.410,0.210,0.530
'0:05.176',-0.920,-0.420,0.190,0.490
'0:05.178',-0.890,-0.400,0.200,0.460
'0:05.180',-0.870,-0.370,0.210,0.440
'0:05.182',-0.850,-0.340,0.220,0.440
'0:05.184',-0.820,-0.320,0.220,0.440
'0:05.186',-0.790,-0.300,0.200,0.430
'0:05.188',-0.720,-0.270,0.170,0.350
'0:05.190',-0.610,-0.220,0.110,0.250
'0:05.192',-0.500,-0.170,0.060,0.150
'0:05.194',-0.400,-0.120,0.050,0.060
'0:05.196',-0.340,-0.120,0.060,0.030
'0:05.198',-0.370,-0.160,0.080,0.090
'0:05.200',-0.440,-0.180,0.130,0.200
'0:05.202',-0.490,-0.170,0.200,0.270
'0:05.204',-0.530,-0.170,0.260,0.320
'0:05.206',-0.550,-0.170,0.300,0.350
'0:05.208',-0.570,-0.180,0.320,0.400
'0:05.210',-0.580,-0.170,0.330,0.420
'0:05.212',-0.560,-0.120,0.330,0.420
'0:05.214',-0.510,-0.070,0.310,0.410
'0:05.216',-0.450,-0.050,0.280,0.370
'0:05.218',-0.400,-0.020,0.260,0.330
'0:05.220',-0.360,0.000,0.250,0.290
'0:05.222',-0.330,0.030,0.260,0.260
'0:05.224',-0.300,0.050,0.290,0.260
'0:05.226',-0.280,0.090,0.310,0.290
'0:05.228',-0.250,0.120,0.310,0.310
'0:05.230',-0.220,0.150,0.310,0.300
'0:05.232',-0.160,0.180,0.310,0.280
'0:05.234',-0.090,0.230,0.300,0.240
'0:05.236',-0.030,0.260,0.280,0.190
'0:05.238',0.000,0.280,0.260,0.130
'0:05.240',0.050,0.310,0.260,0.100
'0:05.242',0.090,0.350,0.240,0.100
'0:05.244',0.130,0.370,0.220,0.100
'0:05.246',0.160,0.390,0.200,0.090
'0:05.248',0.200,0.400,0.180,0.080
'0:05.250',0.240,0.400,0.160,0.050
'0:05.252',0.270,0.390,0.140,0.010
'0:05.254',0.300,0.410,0.110,0.000
'0:05.256',0.330,0.410,0.080,-0.010
'0:05.258',0.360,0.390,0.050,-0.030
'0:05.260',0.390,0.370,0.020,-0.040
'0:05.262',0.400,0.370,0.020,-0.030
'0:05.264',0.410,0.370,0.020,-0.020
'0:05.266',0.440,0.360,0.020,-0.030
'0:05.268',0.450,0.360,0.020,-0.040
'0:05.270',0.460,0.360,0.010,-0.050
'0:05.272',0.490,0.330,0.000,-0.070
'0:05.274',0.500,0.300,-0.020,-0.080
'0:05.276',0.510,0.260,-0.030,-0.080
'0:05.278',0.510,0.230,-0.030,-0.080
'0:05.280',0.510,0.200,-0.010,-0.080
'0:05.282',0.510,0.190,0.000,-0.050
'0:05.284',0.510,0.160,0.020,-0.040
'0:05.286',0.510,0.140,0.030,-0.060
'0:05.288',0.510,0.120,0.020,-0.070
'0:05.290',0.510,0.100,0.020,-0.070
'0:05.292',0.510,0.080,0.010,-0.080
'0:05.294',0.510,0.060,0.000,-0.080
'0:05.296',0.500,0.050,0.010,-0.050
'0:05.298',0.480,0.050,0.010,-0.010
'0:05.300',0.480,0.020,0.000,-0.020
'0:05.302',0.480,0.000,0.000,-0.040
'0:05.304',0.480,0.000,0.000,-0.060
'0:05.306',0.490,-0.010,0.000,-0.070
'0:05.308',0.490,-0.030,-0.020,-0.090
'0:05.310',0.460,-0.050,-0.030,-0.090
'0:05.312',0.430,-0.060,-0.030,-0.080
'0:05.314',0.430,-0.100,-0.020,-0.080
'0:05.316',0.430,-0.120,-0.030,-0.120
'0:05.318',0.460,-0.140,-0.070,-0.180
'0:05.320',0.490,-0.150,-0.110,-0.250
'0:05.322',0.530,-0.150,-0.190,-0.310
'0:05.324',0.550,-0.170,-0.260,-0.360
'0:05.326',0.540,-0.180,-0.270,-0.370
'0:05.328',0.530,-0.180,-0.230,-0.340
'0:05.330',0.510,-0.140,-0.090,-0.240
'0:05.332',0.490,-0.030,0.120,-0.080
'0:05.334',0.490,0.130,0.410,0.080
'0:05.336',0.530,0.380,0.780,0.290
'0:05.338',0.610,0.720,1.230,0.540
'0:05.340',0.680,1.140,1.750,0.850
'0:05.342',0.770,1.580,2.310,1.170
'0:05.344',0.850,2.050,2.890,1.500
'0:05.346',0.930,2.530,3.490,1.850
'0:05.348',0.960,2.970,4.030,2.180
'0:05.350',0.980,3.330,4.450,2.430
'0:05.352',1.000,3.570,4.700,2.590
'0:05.354',0.990,3.680,4.780,2.650
'0:05.356',0.960,3.640,4.680,2.590
'0:05.358',0.840,3.360,4.330,2.440
'0:05.360',0.610,2.850,3.760,2.230
'0:05.362',0.370,2.260,3.120,1.980
'0:05.364',0.190,1.710,2.500,1.700
'0:05.366',0.070,1.250,1.950,1.420
'0:05.368',0.020,0.890,1.480,1.150
'0:05.370',0.000,0.570,1.080,0.880
'0:05.372',0.000,0.300,0.730,0.650
'0:05.374',-0.010,0.080,0.430,0.460
'0:05.376',0.000,-0.100,0.180,0.280
'0:05.378',-0.010,-0.270,-0.030,0.150
'0:05.380',-0.030,-0.390,-0.210,0.050
'0:05.382',-0.050,-0.480,-0.370,-0.040
'0:05.384',-0.030,-0.580,-0.520,-0.160
'0:05.386',-0.020,-0.670,-0.640,-0.260
'0:05.388',-0.010,-0.740,-0.750,-0.350
'0:05.390',0.000,-0.810,-0.830,-0.410
'0:05.392',0.000,-0.860,-0.890,-0.460
'0:05.394',0.000,-0.880,-0.940,-0.480
'0:05.396',-0.020,-0.880,-0.960,-0.470
'0:05.398',-0.030,-0.900,-0.990,-0.490
'0:05.400',-0.020,-0.940,-1.020,-0.540
'0:05.402',0.000,-0.940,-1.050,-0.590
'0:05.404',0.020,-0.950,-1.080,-0.650
'0:05.406',0.040,-0.970,-1.100,-0.670
'0:05.408',0.050,-0.950,-1.090,-0.670
'0:05.410',0.050,-0.920,-1.060,-0.640
'0:05.412',0.050,-0.900,-1.040,-0.630
'0:05.414',0.060,-0.890,-1.040,-0.640
'0:05.416',0.080,-0.860,-1.040,-0.660
'0:05.418',0.110,-0.840,-1.050,-0.700
'0:05.420',0.130,-0.820,-1.060,-0.730
'0:05.422',0.160,-0.790,-1.070,-0.760
'0:05.424',0.180,-0.760,-1.080,-0.760
'0:05.426',0.200,-0.780,-1.080,-0.770
'0:05.428',0.190,-0.810,-1.070,-0.770
'0:05.430',0.190,-0.800,-1.040,-0.760
'0:05.432',0.210,-0.750,-0.990,-0.720
'0:05.434',0.220,-0.710,-0.920,-0.690
'0:05.436',0.190,-0.670,-0.850,-0.630
'0:05.438',0.150,-0.640,-0.810,-0.560
'0:05.440',0.150,-0.630,-0.800,-0.540
'0:05.442',0.150,-0.640,-0.790,-0.530
'0:05.444',0.140,-0.650,-0.770,-0.520
'0:05.446',0.140,-0.650,-0.740,-0.510
'0:05.448',0.140,-0.640,-0.730,-0.500
'0:05.450',0.160,-0.620,-0.710,-0.490
'0:05.452',0.160,-0.580,-0.690,-0.480
'0:05.454',0.170,-0.590,-0.680,-0.490
'0:05.456',0.200,-0.600,-0.680,-0.520
'0:05.458',0.220,-0.590,-0.680,-0.530
'0:05.460',0.230,-0.590,-0.690,-0.540
'0:05.462',0.230,-0.590,-0.680,-0.520
'0:05.464',0.210,-0.570,-0.660,-0.510
'0:05.466',0.200,-0.540,-0.640,-0.480
'0:05.468',0.210,-0.530,-0.630,-0.480
'0:05.470',0.240,-0.530,-0.630,-0.500
'0:05.472',0.260,-0.530,-0.640,-0.510
'0:05.474',0.280,-0.540,-0.630,-0.520
'0:05.476',0.310,-0.540,-0.620,-0.520
'0:05.478',0.300,-0.530,-0.600,-0.520
'0:05.480',0.280,-0.490,-0.570,-0.480
'0:05.482',0.300,-0.480,-0.560,-0.470
'0:05.484',0.320,-0.480,-0.560,-0.480
'0:05.486',0.340,-0.480,-0.560,-0.510
'0:05.488',0.370,-0.480,-0.560,-0.520
'0:05.490',0.390,-0.480,-0.570,-0.530
'0:05.492',0.400,-0.470,-0.580,-0.530
'0:05.494',0.390,-0.430,-0.570,-0.520
'0:05.496',0.400,-0.420,-0.570,-0.510
'0:05.498',0.420,-0.420,-0.560,-0.510
'0:05.500',0.450,-0.430,-0.560,-0.510
'0:05.502',0.480,-0.430,-0.550,-0.540
'0:05.504',0.500,-0.430,-0.560,-0.570
'0:05.506',0.520,-0.410,-0.560,-0.570
'0:05.508',0.520,-0.390,-0.550,-0.560
'0:05.510',0.540,-0.380,-0.540,-0.560
'0:05.512',0.560,-0.370,-0.530,-0.570
'0:05.514',0.570,-0.360,-0.530,-0.560
'0:05.516',0.590,-0.360,-0.520,-0.560
'0:05.518',0.620,-0.350,-0.520,-0.580
'0:05.520',0.640,-0.330,-0.510,-0.600
'0:05.522',0.640,-0.300,-0.500,-0.600
'0:05.524',0.650,-0.280,-0.500,-0.590
'0:05.526',0.670,-0.270,-0.480,-0.590
'0:05.528',0.670,-0.260,-0.470,-0.580
'0:05.530',0.670,-0.260,-0.460,-0.580
'0:05.532',0.660,-0.240,-0.450,-0.580
'0:05.534',0.660,-0.240,-0.440,-0.580
'0:05.536',0.650,-0.220,-0.420,-0.560
'0:05.538',0.630,-0.230,-0.410,-0.560
'0:05.540',0.620,-0.250,-0.410,-0.550
'0:05.542',0.610,-0.270,-0.410,-0.540
'0:05.544',0.580,-0.280,-0.410,-0.530
'0:05.546',0.550,-0.290,-0.390,-0.510
'0:05.548',0.510,-0.300,-0.380,-0.480
'0:05.550',0.470,-0.290,-0.370,-0.450
'0:05.552',0.440,-0.310,-0.360,-0.440
'0:05.554',0.420,-0.340,-0.370,-0.430
'0:05.556',0.410,-0.350,-0.370,-0.420
'0:05.558',0.390,-0.370,-0.380,-0.410
'0:05.560',0.350,-0.370,-0.370,-0.380
'0:05.562',0.310,-0.360,-0.350,-0.350
'0:05.564',0.280,-0.320,-0.320,-0.320
'0:05.566',0.260,-0.300,-0.310,-0.300
'0:05.568',0.260,-0.290,-0.320,-0.300
'0:05.570',0.270,-0.270,-0.320,-0.320
'0:05.572',0.270,-0.280,-0.320,-0.330
'0:05.574',0.260,-0.300,-0.320,-0.320
'0:05.576',0.220,-0.320,-0.310,-0.300
'0:05.578',0.180,-0.320,-0.300,-0.250
'0:05.580',0.140,-0.330,-0.280,-0.210
'0:05.582',0.110,-0.360,-0.260,-0.180
'0:05.584',0.090,-0.380,-0.250,-0.150
'0:05.586',0.070,-0.400,-0.240,-0.130
'0:05.588',0.040,-0.410,-0.220,-0.120
'0:05.590',0.000,-0.400,-0.200,-0.090
'0:05.592',-0.050,-0.400,-0.180,-0.040
'0:05.594',-0.100,-0.410,-0.180,0.000
'0:05.596',-0.150,-0.430,-0.180,0.030
'0:05.598',-0.190,-0.450,-0.170,0.040
'0:05.600',-0.220,-0.460,-0.150,0.060
'0:05.602',-0.240,-0.470,-0.150,0.070
'0:05.604',-0.250,-0.480,-0.150,0.070
'0:05.606',-0.280,-0.480,-0.140,0.090
'0:05.608',-0.310,-0.490,-0.130,0.130
'0:05.610',-0.330,-0.510,-0.120,0.170
'0:05.612',-0.360,-0.540,-0.100,0.200
'0:05.614',-0.390,-0.550,-0.090,0.230
'0:05.616',-0.410,-0.570,-0.080,0.260
'0:05.618',-0.430,-0.570,-0.080,0.270
'0:05.620',-0.450,-0.550,-0.070,0.290
'0:05.622',-0.460,-0.530,-0.060,0.310
'0:05.624',-0.460,-0.520,-0.050,0.330
'0:05.626',-0.460,-0.500,-0.030,0.340
'0:05.628',-0.460,-0.460,-0.010,0.350
'0:05.630',-0.450,-0.430,0.000,0.380
'0:05.632',-0.430,-0.390,0.010,0.410
'0:05.634',-0.420,-0.340,0.010,0.410
'0:05.636',-0.400,-0.310,0.010,0.380
'0:05.638',-0.380,-0.290,0.010,0.360
'0:05.640',-0.360,-0.260,0.000,0.350
'0:05.642',-0.330,-0.240,0.000,0.350
'0:05.644',-0.330,-0.230,0.000,0.370
'0:05.646',-0.330,-0.220,0.020,0.390
'0:05.648',-0.320,-0.180,0.040,0.400
'0:05.650',-0.300,-0.150,0.040,0.400
'0:05.652',-0.280,-0.140,0.040,0.380
'0:05.654',-0.260,-0.130,0.050,0.370
'0:05.656',-0.230,-0.120,0.050,0.380
'0:05.658',-0.220,-0.110,0.050,0.390
'0:05.660',-0.210,-0.080,0.060,0.390
'0:05.662',-0.220,-0.050,0.080,0.410
'0:05.664',-0.210,-0.010,0.100,0.430
'0:05.666',-0.170,0.010,0.100,0.410
'0:05.668',-0.140,0.040,0.100,0.380
'0:05.670',-0.120,0.070,0.090,0.360
'0:05.672',-0.100,0.090,0.100,0.350
'0:05.674',-0.100,0.120,0.110,0.340
'0:05.676',-0.120,0.150,0.130,0.340
'0:05.678',-0.160,0.180,0.160,0.340
'0:05.680',-0.180,0.200,0.190,0.340
'0:05.682',-0.170,0.220,0.200,0.350
'0:05.684',-0.170,0.240,0.200,0.350
'0:05.686',-0.170,0.240,0.180,0.320
'0:05.688',-0.190,0.230,0.170,0.290
'0:05.690',-0.190,0.260,0.170,0.290
'0:05.692',-0.200,0.280,0.180,0.300
'0:05.694',-0.210,0.310,0.190,0.300
'0:05.696',-0.240,0.330,0.210,0.330
'0:05.698',-0.270,0.350,0.220,0.350
'0:05.700',-0.290,0.350,0.240,0.360
'0:05.702',-0.300,0.350,0.260,0.340
'0:05.704',-0.310,0.360,0.270,0.340
'0:05.706',-0.330,0.360,0.270,0.340
'0:05.708',-0.330,0.350,0.260,0.320
'0:05.710',-0.340,0.350,0.260,0.320
'0:05.712',-0.350,0.360,0.260,0.330
'0:05.714',-0.350,0.360,0.270,0.340
'0:05.716',-0.330,0.370,0.270,0.330
'0:05.718',-0.300,0.380,0.270,0.310
'0:05.720',-0.270,0.390,0.260,0.290
'0:05.722',-0.240,0.380,0.240,0.280
'0:05.724',-0.200,0.390,0.210,0.280
'0:05.726',-0.160,0.390,0.190,0.260
'0:05.728',-0.130,0.400,0.180,0.250
'0:05.730',-0.100,0.400,0.170,0.250
'0:05.732',-0.060,0.400,0.160,0.250
'0:05.734',-0.020,0.410,0.120,0.240
'0:05.736',0.020,0.400,0.090,0.190
'0:05.738',0.080,0.370,0.070,0.150
'0:05.740',0.130,0.350,0.060,0.120
'0:05.742',0.160,0.330,0.040,0.090
'0:05.744',0.200,0.310,0.020,0.080
'0:05.746',0.220,0.320,0.020,0.080
'0:05.748',0.230,0.310,0.040,0.100
'0:05.750',0.270,0.290,0.020,0.080
'0:05.752',0.330,0.260,0.000,0.030
'0:05.754',0.390,0.230,-0.020,-0.010
'0:05.756',0.450,0.200,-0.040,-0.040
'0:05.758',0.490,0.170,-0.060,-0.060
'0:05.760',0.510,0.160,-0.070,-0.060
'0:05.762',0.520,0.160,-0.080,-0.060
'0:05.764',0.530,0.140,-0.090,-0.070
'0:05.766',0.560,0.120,-0.120,-0.100
'0:05.768',0.590,0.100,-0.150,-0.140
'0:05.770',0.620,0.090,-0.160,-0.190
'0:05.772',0.650,0.060,-0.170,-0.220
'0:05.774',0.670,0.040,-0.170,-0.220
'0:05.776',0.680,0.030,-0.180,-0.220
'0:05.778',0.660,0.010,-0.170,-0.210
'0:05.780',0.640,0.000,-0.160,-0.210
'0:05.782',0.640,0.000,-0.170,-0.210
'0:05.784',0.650,-0.020,-0.180,-0.240
'0:05.786',0.660,-0.030,-0.190,-0.270
'0:05.788',0.650,-0.030,-0.180,-0.280
'0:05.790',0.630,-0.020,-0.170,-0.260
'0:05.792',0.620,-0.030,-0.170,-0.270
'0:05.794',0.610,-0.040,-0.170,-0.280
'0:05.796',0.580,-0.050,-0.150,-0.280
'0:05.798',0.560,-0.050,-0.150,-0.280
'0:05.800',0.530,-0.060,-0.150,-0.280
'0:05.802',0.520,-0.050,-0.150,-0.290
'0:05.804',0.520,-0.030,-0.150,-0.300
'0:05.806',0.510,-0.040,-0.160,-0.300
'0:05.808',0.500,-0.040,-0.150,-0.290
'0:05.810',0.470,-0.030,-0.130,-0.270
'0:05.812',0.440,-0.020,-0.110,-0.250
'0:05.814',0.410,-0.010,-0.090,-0.240
'0:05.816',0.380,0.000,-0.080,-0.230
'0:05.818',0.350,0.010,-0.070,-0.220
'0:05.820',0.340,0.020,-0.060,-0.250
'0:05.822',0.340,0.020,-0.060,-0.260
'0:05.824',0.330,0.010,-0.060,-0.250
'0:05.826',0.310,0.010,-0.070,-0.230
'0:05.828',0.280,0.010,-0.080,-0.220
'0:05.830',0.240,0.020,-0.080,-0.190
'0:05.832',0.230,0.040,-0.060,-0.160
'0:05.834',0.220,0.050,-0.040,-0.170
'0:05.836',0.210,0.040,-0.050,-0.200
'0:05.838',0.200,0.030,-0.070,-0.210
'0:05.840',0.200,0.010,-0.080,-0.210
'0:05.842',0.190,0.000,-0.080,-0.200
'0:05.844',0.170,0.030,-0.070,-0.180
'0:05.846',0.140,0.070,-0.050,-0.150
'0:05.848',0.130,0.070,-0.040,-0.150
'0:05.850',0.130,0.070,-0.040,-0.140
'0:05.852',0.140,0.070,-0.040,-0.140
'0:05.854',0.140,0.060,-0.050,-0.160
'0:05.856',0.140,0.060,-0.050,-0.150
'0:05.858',0.120,0.070,-0.040,-0.130
'0:05.860',0.100,0.100,-0.040,-0.090
'0:05.862',0.090,0.100,-0.040,-0.080
'0:05.864',0.080,0.100,-0.050,-0.080
'0:05.866',0.090,0.090,-0.050,-0.080
'0:05.868',0.090,0.080,-0.060,-0.090
'0:05.870',0.090,0.070,-0.060,-0.100
'0:05.872',0.100,0.050,-0.060,-0.100
'0:05.874',0.100,0.060,-0.050,-0.090
'0:05.876',0.110,0.050,-0.050,-0.070
'0:05.878',0.090,0.050,-0.050,-0.050
'0:05.880',0.070,0.050,-0.060,-0.040
'0:05.882',0.070,0.040,-0.050,-0.050
'0:05.884',0.080,0.030,-0.060,-0.070
'0:05.886',0.070,0.040,-0.070,-0.090
'0:05.888',0.060,0.060,-0.080,-0.110
'0:05.890',0.060,0.060,-0.090,-0.140
'0:05.892',0.060,0.040,-0.110,-0.170
'0:05.894',0.050,0.030,-0.110,-0.170
'0:05.896',0.030,0.030,-0.100,-0.170
'0:05.898',0.030,0.030,-0.100,-0.170
'0:05.900',0.030,0.030,-0.100,-0.180
'0:05.902',0.020,0.060,-0.090,-0.170
'0:05.904',0.020,0.050,-0.090,-0.190
'0:05.906',0.030,0.040,-0.090,-0.210
'0:05.908',0.030,0.030,-0.100,-0.210
'0:05.910',0.030,0.030,-0.100,-0.200
'0:05.912',0.020,0.050,-0.090,-0.200
'0:05.914',0.020,0.060,-0.080,-0.180
'0:05.916',0.020,0.070,-0.070,-0.140
'0:05.918',0.030,0.080,-0.060,-0.140
'0:05.920',0.050,0.070,-0.080,-0.160
'0:05.922',0.070,0.070,-0.090,-0.170
'0:05.924',0.080,0.070,-0.100,-0.170
'0:05.926',0.090,0.060,-0.110,-0.150
'0:05.928',0.080,0.070,-0.120,-0.120
'0:05.930',0.070,0.080,-0.120,-0.080
'0:05.932',0.060,0.090,-0.110,-0.050
'0:05.934',0.070,0.090,-0.110,-0.040
'0:05.936',0.090,0.090,-0.120,-0.050
'0:05.938',0.100,0.080,-0.140,-0.060
'0:05.940',0.110,0.060,-0.150,-0.060
'0:05.942',0.120,0.050,-0.150,-0.050
'0:05.944',0.090,0.060,-0.140,-0.020
'0:05.946',0.070,0.060,-0.130,-0.020
'0:05.948',0.080,0.060,-0.140,-0.030
'0:05.950',0.110,0.060,-0.140,-0.060
'0:05.952',0.120,0.060,-0.130,-0.090
'0:05.954',0.140,0.060,-0.150,-0.120
'0:05.956',0.160,0.060,-0.160,-0.130
'0:05.958',0.160,0.060,-0.160,-0.130
'0:05.960',0.140,0.060,-0.160,-0.150
'0:05.962',0.140,0.070,-0.160,-0.160
'0:05.964',0.140,0.060,-0.160,-0.150
'0:05.966',0.150,0.060,-0.160,-0.130
'0:05.968',0.170,0.060,-0.160,-0.130
'0:05.970',0.180,0.060,-0.170,-0.140
'0:05.972',0.180,0.070,-0.170,-0.120
'0:05.974',0.190,0.080,-0.150,-0.100
'0:05.976',0.190,0.070,-0.150,-0.090
'0:05.978',0.170,0.080,-0.140,-0.080
'0:05.980',0.160,0.080,-0.130,-0.060
'0:05.982',0.160,0.090,-0.120,-0.040
'0:05.984',0.150,0.090,-0.110,-0.040
'0:05.986',0.140,0.100,-0.090,-0.040
'0:05.988',0.140,0.100,-0.090,-0.060
'0:05.990',0.150,0.090,-0.090,-0.060
'0:05.992',0.160,0.090,-0.100,-0.050
'0:05.994',0.150,0.090,-0.130,-0.020
'0:05.996',0.150,0.080,-0.150,0.000
'0:05.998',0.160,0.080,-0.170,0.000
'0:06.000',0.170,0.100,-0.220,0.000
'0:06.002',0.190,0.090,-0.280,-0.050
'0:06.004',0.220,0.030,-0.340,-0.110
'0:06.006',0.220,-0.010,-0.370,-0.120
'0:06.008',0.230,-0.020,-0.330,-0.070
'0:06.010',0.210,0.010,-0.180,0.030
'0:06.012',0.170,0.110,0.030,0.200
'0:06.014',0.150,0.280,0.310,0.410
'0:06.016',0.200,0.540,0.670,0.620
'0:06.018',0.300,0.870,1.110,0.820
'0:06.020',0.410,1.240,1.600,1.060
'0:06.022',0.520,1.650,2.140,1.350
'0:06.024',0.640,2.090,2.700,1.650
'0:06.026',0.730,2.570,3.280,1.980
'0:06.028',0.790,3.030,3.830,2.290
'0:06.030',0.840,3.430,4.270,2.530
'0:06.032',0.900,3.720,4.550,2.660
'0:06.034',0.940,3.880,4.660,2.690
'0:06.036',0.950,3.920,4.620,2.610
'0:06.038',0.890,3.740,4.370,2.470
'0:06.040',0.710,3.320,3.900,2.300
'0:06.042',0.460,2.760,3.310,2.090
'0:06.044',0.240,2.180,2.700,1.850
'0:06.046',0.090,1.690,2.150,1.580
'0:06.048',0.000,1.270,1.660,1.310
'0:06.050',-0.050,0.930,1.230,1.050
'0:06.052',-0.080,0.660,0.860,0.790
'0:06.054',-0.080,0.430,0.540,0.560
'0:06.056',-0.070,0.250,0.270,0.380
'0:06.058',-0.060,0.100,0.040,0.210
'0:06.060',-0.040,-0.040,-0.140,0.070
'0:06.062',-0.030,-0.160,-0.300,-0.050
'0:06.064',-0.010,-0.260,-0.450,-0.170
'0:06.066',0.010,-0.340,-0.580,-0.270
'0:06.068',0.040,-0.410,-0.680,-0.380
'0:06.070',0.070,-0.470,-0.760,-0.460
'0:06.072',0.090,-0.530,-0.830,-0.530
'0:06.074',0.100,-0.590,-0.880,-0.580
'0:06.076',0.110,-0.630,-0.910,-0.620
'0:06.078',0.100,-0.650,-0.940,-0.650
'0:06.080',0.120,-0.660,-0.960,-0.680
'0:06.082',0.140,-0.670,-0.980,-0.700
'0:06.084',0.140,-0.670,-1.000,-0.730
'0:06.086',0.150,-0.670,-1.000,-0.760
'0:06.088',0.170,-0.680,-1.020,-0.780
'0:06.090',0.190,-0.690,-1.020,-0.790
'0:06.092',0.190,-0.690,-1.020,-0.790
'0:06.094',0.190,-0.690,-1.020,-0.780
'0:06.096',0.190,-0.690,-1.010,-0.760
'0:06.098',0.180,-0.650,-1.000,-0.720
'0:06.100',0.180,-0.620,-0.980,-0.710
'0:06.102',0.190,-0.610,-0.970,-0.720
'0:06.104',0.200,-0.600,-0.960,-0.730
'0:06.106',0.230,-0.580,-0.950,-0.740
'0:06.108',0.250,-0.570,-0.940,-0.730
'0:06.110',0.250,-0.560,-0.920,-0.730
'0:06.112',0.230,-0.530,-0.880,-0.700
'0:06.114',0.240,-0.510,-0.860,-0.680
'0:06.116',0.250,-0.500,-0.840,-0.660
'0:06.118',0.250,-0.490,-0.820,-0.660
'0:06.120',0.270,-0.490,-0.810,-0.680
'0:06.122',0.270,-0.490,-0.800,-0.680
'0:06.124',0.280,-0.480,-0.800,-0.680
'0:06.126',0.270,-0.440,-0.770,-0.650
'0:06.128',0.260,-0.430,-0.740,-0.620
'0:06.130',0.260,-0.420,-0.730,-0.610
'0:06.132',0.270,-0.410,-0.730,-0.600
'0:06.134',0.290,-0.400,-0.720,-0.620
'0:06.136',0.310,-0.400,-0.720,-0.650
'0:06.138',0.310,-0.400,-0.720,-0.660
'0:06.140',0.310,-0.380,-0.710,-0.650
'0:06.142',0.300,-0.360,-0.700,-0.630
'0:06.144',0.300,-0.350,-0.690,-0.620
'0:06.146',0.310,-0.340,-0.680,-0.620
'0:06.148',0.310,-0.340,-0.660,-0.610
'0:06.150',0.310,-0.320,-0.650,-0.590
'0:06.152',0.320,-0.310,-0.650,-0.590
'0:06.154',0.320,-0.290,-0.640,-0.590
'0:06.156',0.320,-0.270,-0.630,-0.580
'0:06.158',0.330,-0.270,-0.620,-0.580
'0:06.160',0.340,-0.270,-0.630,-0.580
'0:06.162',0.320,-0.270,-0.630,-0.570
'0:06.164',0.320,-0.270,-0.620,-0.570
'0:06.166',0.340,-0.260,-0.610,-0.560
'0:06.168',0.350,-0.240,-0.600,-0.560
'0:06.170',0.360,-0.220,-0.610,-0.580
'0:06.172',0.380,-0.220,-0.620,-0.590
'0:06.174',0.400,-0.220,-0.610,-0.600
'0:06.176',0.420,-0.220,-0.610,-0.610
'0:06.178',0.400,-0.210,-0.590,-0.600
'0:06.180',0.380,-0.190,-0.580,-0.580
'0:06.182',0.380,-0.160,-0.570,-0.550
'0:06.184',0.380,-0.130,-0.550,-0.550
'0:06.186',0.400,-0.120,-0.550,-0.580
'0:06.188',0.440,-0.130,-0.570,-0.620
'0:06.190',0.470,-0.130,-0.570,-0.620
'0:06.192',0.480,-0.120,-0.560,-0.620
'0:06.194',0.480,-0.110,-0.550,-0.620
'0:06.196',0.470,-0.050,-0.530,-0.600
'0:06.198',0.460,-0.010,-0.510,-0.560
'0:06.200',0.480,0.000,-0.510,-0.560
'0:06.202',0.500,0.000,-0.510,-0.600
'0:06.204',0.530,-0.010,-0.500,-0.640
'0:06.206',0.560,0.000,-0.510,-0.660
'0:06.208',0.570,0.000,-0.520,-0.660
'0:06.210',0.570,0.010,-0.510,-0.650
'0:06.212',0.570,0.030,-0.500,-0.650
'0:06.214',0.570,0.040,-0.490,-0.640
'0:06.216',0.560,0.040,-0.480,-0.640
'0:06.218',0.570,0.050,-0.490,-0.660
'0:06.220',0.590,0.060,-0.500,-0.690
'0:06.222',0.610,0.060,-0.490,-0.700
'0:06.224',0.600,0.090,-0.470,-0.690
'0:06.226',0.590,0.110,-0.460,-0.680
'0:06.228',0.590,0.120,-0.450,-0.670
'0:06.230',0.590,0.120,-0.440,-0.660
'0:06.232',0.590,0.120,-0.420,-0.640
'0:06.234',0.600,0.110,-0.400,-0.630
'0:06.236',0.610,0.110,-0.390,-0.640
'0:06.238',0.610,0.120,-0.390,-0.640
'0:06.240',0.590,0.130,-0.390,-0.610
'0:06.242',0.570,0.120,-0.390,-0.590
'0:06.244',0.540,0.100,-0.370,-0.590
'0:06.246',0.530,0.080,-0.350,-0.580
'0:06.248',0.510,0.070,-0.340,-0.550
'0:06.250',0.480,0.080,-0.340,-0.520
'0:06.252',0.460,0.080,-0.330,-0.510
'0:06.254',0.420,0.080,-0.330,-0.490
'0:06.256',0.410,0.050,-0.340,-0.470
'0:06.258',0.390,0.010,-0.340,-0.440
'0:06.260',0.350,-0.010,-0.330,-0.410
'0:06.262',0.310,-0.030,-0.320,-0.390
'0:06.264',0.270,-0.050,-0.310,-0.360
'0:06.266',0.230,-0.060,-0.300,-0.310
'0:06.268',0.190,-0.060,-0.280,-0.270
'0:06.270',0.150,-0.100,-0.270,-0.250
'0:06.272',0.130,-0.130,-0.270,-0.220
'0:06.274',0.110,-0.150,-0.260,-0.180
'0:06.276',0.080,-0.170,-0.240,-0.140
'0:06.278',0.030,-0.180,-0.220,-0.090
'0:06.280',-0.010,-0.170,-0.200,-0.050
'0:06.282',-0.050,-0.150,-0.180,-0.010
'0:06.284',-0.060,-0.160,-0.170,0.000
'0:06.286',-0.060,-0.180,-0.170,-0.020
'0:06.288',-0.070,-0.190,-0.180,-0.030
'0:06.290',-0.080,-0.190,-0.170,-0.020
'0:06.292',-0.100,-0.210,-0.160,0.000
'0:06.294',-0.130,-0.210,-0.140,0.030
'0:06.296',-0.160,-0.190,-0.120,0.070
'0:06.298',-0.160,-0.210,-0.110,0.090
'0:06.300',-0.160,-0.220,-0.100,0.090
'0:06.302',-0.150,-0.220,-0.100,0.080
'0:06.304',-0.150,-0.220,-0.100,0.070
'0:06.306',-0.150,-0.240,-0.100,0.070
'0:06.308',-0.160,-0.260,-0.090,0.080
'0:06.310',-0.190,-0.240,-0.090,0.100
'0:06.312',-0.190,-0.230,-0.090,0.100
'0:06.314',-0.190,-0.240,-0.090,0.100
'0:06.316',-0.200,-0.250,-0.090,0.090
'0:06.318',-0.200,-0.250,-0.100,0.080
'0:06.320',-0.190,-0.250,-0.110,0.060
'0:06.322',-0.190,-0.230,-0.110,0.060
'0:06.324',-0.190,-0.210,-0.100,0.080
'0:06.326',-0.190,-0.210,-0.090,0.100
'0:06.328',-0.200,-0.210,-0.090,0.120
'0:06.330',-0.200,-0.210,-0.080,0.120
'0:06.332',-0.190,-0.220,-0.100,0.110
'0:06.334',-0.170,-0.230,-0.120,0.090
'0:06.336',-0.160,-0.210,-0.120,0.080
'0:06.338',-0.170,-0.190,-0.110,0.080
'0:06.340',-0.170,-0.200,-0.100,0.070
'0:06.342',-0.160,-0.220,-0.100,0.070
'0:06.344',-0.170,-0.220,-0.090,0.070
'0:06.346',-0.180,-0.230,-0.080,0.060
'0:06.348',-0.170,-0.240,-0.090,0.080
'0:06.350',-0.170,-0.230,-0.100,0.090
'0:06.352',-0.180,-0.220,-0.080,0.100
'0:06.354',-0.180,-0.230,-0.090,0.080
'0:06.356',-0.170,-0.240,-0.100,0.070
'0:06.358',-0.140,-0.240,-0.100,0.060
'0:06.360',-0.130,-0.230,-0.100,0.060
'0:06.362',-0.140,-0.230,-0.100,0.060
'0:06.364',-0.140,-0.210,-0.090,0.070
'0:06.366',-0.130,-0.190,-0.090,0.080
'0:06.368',-0.130,-0.200,-0.100,0.070
'0:06.370',-0.110,-0.210,-0.120,0.060
'0:06.372',-0.100,-0.220,-0.130,0.050
'0:06.374',-0.100,-0.220,-0.140,0.050
'0:06.376',-0.090,-0.220,-0.150,0.050
'0:06.378',-0.100,-0.210,-0.150,0.060
'0:06.380',-0.110,-0.190,-0.140,0.070
'0:06.382',-0.110,-0.180,-0.140,0.060
'0:06.384',-0.090,-0.180,-0.130,0.040
'0:06.386',-0.060,-0.190,-0.130,0.010
'0:06.388',-0.040,-0.210,-0.140,0.000
'0:06.390',-0.040,-0.220,-0.140,-0.010
'0:06.392',-0.030,-0.210,-0.130,-0.010
'0:06.394',-0.040,-0.180,-0.110,0.010
'0:06.396',-0.040,-0.180,-0.100,0.020
'0:06.398',-0.040,-0.170,-0.120,0.020
'0:06.400',-0.020,-0.160,-0.130,0.030
'0:06.402',-0.020,-0.160,-0.140,0.010
'0:06.404',-0.010,-0.170,-0.150,-0.010
'0:06.406',-0.010,-0.170,-0.150,-0.020
'0:06.408',-0.020,-0.160,-0.140,0.000
'0:06.410',-0.030,-0.160,-0.140,0.000
'0:06.412',-0.020,-0.170,-0.140,0.000
'0:06.414',-0.020,-0.160,-0.140,0.000
'0:06.416',-0.020,-0.150,-0.130,0.000
'0:06.418',0.000,-0.160,-0.130,-0.010
'0:06.420',0.000,-0.160,-0.130,-0.030
'0:06.422',0.010,-0.140,-0.130,-0.030
'0:06.424',0.020,-0.130,-0.130,-0.030
'0:06.426',0.010,-0.130,-0.140,-0.030
'0:06.428',0.000,-0.130,-0.150,-0.020
'0:06.430',0.000,-0.120,-0.150,-0.020
'0:06.432',0.000,-0.110,-0.140,-0.020
'0:06.434',0.010,-0.110,-0.140,-0.020
'0:06.436',0.010,-0.090,-0.120,0.000
'0:06.438',0.020,-0.090,-0.110,-0.010
'0:06.440',0.030,-0.100,-0.110,-0.030
'0:06.442',0.040,-0.100,-0.110,-0.040
'0:06.444',0.040,-0.090,-0.120,-0.040
'0:06.446',0.030,-0.090,-0.110,-0.030
'0:06.448',0.030,-0.070,-0.100,-0.030
'0:06.450',0.030,-0.060,-0.090,-0.010
'0:06.452',0.040,-0.060,-0.090,-0.020
'0:06.454',0.050,-0.050,-0.100,-0.050
'0:06.456',0.060,-0.040,-0.110,-0.050
'0:06.458',0.060,-0.040,-0.110,-0.050
'0:06.460',0.060,-0.060,-0.120,-0.040
'0:06.462',0.050,-0.050,-0.120,-0.020
'0:06.464',0.030,-0.030,-0.110,0.000
'0:06.466',0.030,-0.030,-0.100,0.000
'0:06.468',0.040,-0.040,-0.090,-0.010
'0:06.470',0.050,-0.050,-0.100,-0.040
'0:06.472',0.060,-0.050,-0.120,-0.060
'0:06.474',0.070,-0.060,-0.130,-0.060
'0:06.476',0.070,-0.070,-0.120,-0.060
'0:06.478',0.040,-0.060,-0.110,-0.040
'0:06.480',0.020,-0.050,-0.100,-0.030
'0:06.482',0.020,-0.060,-0.090,-0.040
'0:06.484',0.020,-0.080,-0.090,-0.060
'0:06.486',0.040,-0.080,-0.110,-0.080
'0:06.488',0.060,-0.080,-0.120,-0.090
'0:06.490',0.070,-0.090,-0.120,-0.090
'0:06.492',0.060,-0.080,-0.110,-0.080
'0:06.494',0.040,-0.080,-0.110,-0.070
'0:06.496',0.030,-0.080,-0.090,-0.050
'0:06.498',0.030,-0.080,-0.090,-0.050
'0:06.500',0.040,-0.080,-0.090,-0.060
'0:06.502',0.040,-0.090,-0.100,-0.090
'0:06.504',0.050,-0.090,-0.100,-0.120
'0:06.506',0.040,-0.080,-0.100,-0.100
'0:06.508',0.040,-0.080,-0.100,-0.080
'0:06.510',0.030,-0.090,-0.100,-0.070
'0:06.512',0.010,-0.100,-0.100,-0.060
'0:06.514',0.010,-0.090,-0.100,-0.050
