'Elapsed time','ECG I','ECG I filtered'
'hh:mm:ss.mmm','mV','mV'
'0:00.000',-0.085,-0.115
'0:00.002',-0.080,-0.115
'0:00.004',-0.070,-0.120
'0:00.006',-0.075,-0.120
'0:00.008',-0.095,-0.120
'0:00.010',-0.090,-0.120
'0:00.012',-0.100,-0.120
'0:00.014',-0.100,-0.115
'0:00.016',-0.100,-0.115
'0:00.018',-0.085,-0.115
'0:00.020',-0.060,-0.110
'0:00.022',-0.045,-0.110
'0:00.024',-0.055,-0.110
'0:00.026',-0.060,-0.110
'0:00.028',-0.070,-0.105
'0:00.030',-0.080,-0.105
'0:00.032',-0.085,-0.105
'0:00.034',-0.080,-0.105
'0:00.036',-0.070,-0.100
'0:00.038',-0.040,-0.100
'0:00.040',-0.050,-0.100
'0:00.042',-0.045,-0.100
'0:00.044',-0.040,-0.100
'0:00.046',-0.040,-0.100
'0:00.048',-0.055,-0.100
'0:00.050',-0.060,-0.100
'0:00.052',-0.055,-0.100
'0:00.054',-0.055,-0.095
'0:00.056',-0.055,-0.095
'0:00.058',-0.045,-0.095
'0:00.060',-0.040,-0.095
'0:00.062',-0.045,-0.090
'0:00.064',-0.040,-0.090
'0:00.066',-0.030,-0.090
'0:00.068',-0.035,-0.090
'0:00.070',-0.045,-0.085
'0:00.072',-0.055,-0.085
'0:00.074',-0.055,-0.085
'0:00.076',-0.050,-0.085
'0:00.078',-0.020,-0.085
'0:00.080',-0.015,-0.080
'0:00.082',-0.010,-0.080
'0:00.084',0.005,-0.075
'0:00.086',0.000,-0.070
'0:00.088',-0.005,-0.070
'0:00.090',-0.025,-0.065
'0:00.092',-0.035,-0.065
'0:00.094',-0.030,-0.060
'0:00.096',-0.030,-0.060
'0:00.098',-0.015,-0.060
'0:00.100',-0.005,-0.060
'0:00.102',0.000,-0.065
'0:00.104',0.010,-0.065
'0:00.106',0.020,-0.060
'0:00.108',0.000,-0.060
'0:00.110',-0.005,-0.055
'0:00.112',0.005,-0.050
'0:00.114',0.005,-0.050
'0:00.116',0.010,-0.045
'0:00.118',0.025,-0.040
'0:00.120',0.040,-0.035
'0:00.122',0.055,-0.030
'0:00.124',0.060,-0.025
'0:00.126',0.045,-0.020
'0:00.128',0.040,-0.010
'0:00.130',0.045,-0.005
'0:00.132',0.040,0.005
'0:00.134',0.040,0.010
'0:00.136',0.070,0.020
'0:00.138',0.075,0.025
'0:00.140',0.090,0.025
'0:00.142',0.105,0.030
'0:00.144',0.105,0.030
'0:00.146',0.115,0.030
'0:00.148',0.105,0.035
'0:00.150',0.100,0.035
'0:00.152',0.100,0.040
'0:00.154',0.095,0.045
'0:00.156',0.125,0.055
'0:00.158',0.155,0.065
'0:00.160',0.160,0.075
'0:00.162',0.160,0.085
'0:00.164',0.175,0.095
'0:00.166',0.175,0.100
'0:00.168',0.155,0.105
'0:00.170',0.160,0.110
'0:00.172',0.150,0.115
'0:00.174',0.150,0.120
'0:00.176',0.160,0.125
'0:00.178',0.180,0.125
'0:00.180',0.190,0.125
'0:00.182',0.190,0.125
'0:00.184',0.200,0.125
'0:00.186',0.190,0.120
'0:00.188',0.180,0.120
'0:00.190',0.175,0.115
'0:00.192',0.165,0.110
'0:00.194',0.160,0.105
'0:00.196',0.165,0.105
'0:00.198',0.155,0.100
'0:00.200',0.165,0.100
'0:00.202',0.165,0.100
'0:00.204',0.170,0.100
'0:00.206',0.145,0.095
'0:00.208',0.135,0.090
'0:00.210',0.110,0.085
'0:00.212',0.090,0.075
'0:00.214',0.070,0.065
'0:00.216',0.075,0.050
'0:00.218',0.085,0.040
'0:00.220',0.085,0.025
'0:00.222',0.070,0.015
'0:00.224',0.070,0.010
'0:00.226',0.050,0.000
'0:00.228',0.040,-0.005
'0:00.230',0.025,-0.010
'0:00.232',0.005,-0.015
'0:00.234',-0.005,-0.020
'0:00.236',0.000,-0.025
'0:00.238',0.000,-0.035
'0:00.240',0.005,-0.045
'0:00.242',0.010,-0.055
'0:00.244',0.000,-0.060
'0:00.246',0.010,-0.065
'0:00.248',0.015,-0.065
'0:00.250',0.030,-0.060
'0:00.252',0.035,-0.050
'0:00.254',0.045,-0.035
'0:00.256',0.065,-0.015
'0:00.258',0.085,0.000
'0:00.260',0.090,0.015
'0:00.262',0.120,0.025
'0:00.264',0.115,0.030
'0:00.266',0.090,0.035
'0:00.268',0.085,0.035
'0:00.270',0.070,0.030
'0:00.272',0.080,0.025
'0:00.274',0.080,0.025
'0:00.276',0.090,0.025
'0:00.278',0.095,0.025
'0:00.280',0.110,0.030
'0:00.282',0.115,0.030
'0:00.284',0.130,0.035
'0:00.286',0.115,0.040
'0:00.288',0.100,0.045
'0:00.290',0.095,0.050
'0:00.292',0.095,0.050
'0:00.294',0.095,0.050
'0:00.296',0.100,0.050
'0:00.298',0.110,0.055
'0:00.300',0.120,0.055
'0:00.302',0.125,0.060
'0:00.304',0.140,0.060
'0:00.306',0.135,0.065
'0:00.308',0.115,0.065
'0:00.310',0.115,0.070
'0:00.312',0.115,0.070
'0:00.314',0.115,0.070
'0:00.316',0.125,0.070
'0:00.318',0.130,0.070
'0:00.320',0.125,0.065
'0:00.322',0.140,0.065
'0:00.324',0.140,0.065
'0:00.326',0.140,0.060
'0:00.328',0.130,0.060
'0:00.330',0.105,0.060
'0:00.332',0.100,0.065
'0:00.334',0.100,0.065
'0:00.336',0.130,0.070
'0:00.338',0.140,0.070
'0:00.340',0.135,0.070
'0:00.342',0.150,0.075
'0:00.344',0.145,0.075
'0:00.346',0.130,0.075
'0:00.348',0.125,0.075
'0:00.350',0.125,0.070
'0:00.352',0.115,0.070
'0:00.354',0.120,0.070
'0:00.356',0.125,0.070
'0:00.358',0.140,0.065
'0:00.360',0.140,0.065
'0:00.362',0.150,0.065
'0:00.364',0.145,0.065
'0:00.366',0.140,0.065
'0:00.368',0.135,0.065
'0:00.370',0.140,0.060
'0:00.372',0.125,0.060
'0:00.374',0.125,0.060
'0:00.376',0.135,0.065
'0:00.378',0.145,0.065
'0:00.380',0.145,0.065
'0:00.382',0.140,0.070
'0:00.384',0.135,0.070
'0:00.386',0.120,0.075
'0:00.388',0.120,0.075
'0:00.390',0.110,0.075
'0:00.392',0.115,0.075
'0:00.394',0.120,0.070
'0:00.396',0.135,0.070
'0:00.398',0.135,0.065
'0:00.400',0.130,0.065
'0:00.402',0.135,0.060
'0:00.404',0.130,0.055
'0:00.406',0.110,0.055
'0:00.408',0.110,0.055
'0:00.410',0.110,0.050
'0:00.412',0.105,0.050
'0:00.414',0.115,0.050
'0:00.416',0.125,0.050
'0:00.418',0.130,0.050
'0:00.420',0.115,0.045
'0:00.422',0.120,0.045
'0:00.424',0.115,0.045
'0:00.426',0.105,0.040
'0:00.428',0.100,0.035
'0:00.430',0.105,0.035
'0:00.432',0.090,0.030
'0:00.434',0.100,0.030
'0:00.436',0.105,0.025
'0:00.438',0.110,0.025
'0:00.440',0.120,0.030
'0:00.442',0.135,0.030
'0:00.444',0.120,0.035
'0:00.446',0.110,0.040
'0:00.448',0.095,0.045
'0:00.450',0.100,0.045
'0:00.452',0.095,0.045
'0:00.454',0.100,0.045
'0:00.456',0.110,0.045
'0:00.458',0.110,0.045
'0:00.460',0.115,0.045
'0:00.462',0.115,0.045
'0:00.464',0.095,0.050
'0:00.466',0.080,0.050
'0:00.468',0.075,0.050
'0:00.470',0.070,0.050
'0:00.472',0.070,0.045
'0:00.474',0.075,0.040
'0:00.476',0.090,0.035
'0:00.478',0.085,0.030
'0:00.480',0.100,0.020
'0:00.482',0.125,0.020
'0:00.484',0.110,0.020
'0:00.486',0.105,0.020
'0:00.488',0.075,0.025
'0:00.490',0.080,0.035
'0:00.492',0.065,0.040
'0:00.494',0.075,0.040
'0:00.496',0.080,0.045
'0:00.498',0.090,0.045
'0:00.500',0.100,0.040
'0:00.502',0.115,0.035
'0:00.504',0.105,0.030
'0:00.506',0.090,0.025
'0:00.508',0.085,0.025
'0:00.510',0.090,0.030
'0:00.512',0.085,0.030
'0:00.514',0.095,0.035
'0:00.516',0.110,0.045
'0:00.518',0.135,0.050
'0:00.520',0.130,0.055
'0:00.522',0.135,0.060
'0:00.524',0.125,0.060
'0:00.526',0.120,0.060
'0:00.528',0.110,0.065
'0:00.530',0.105,0.060
'0:00.532',0.095,0.060
'0:00.534',0.110,0.060
'0:00.536',0.140,0.055
'0:00.538',0.135,0.055
'0:00.540',0.140,0.050
'0:00.542',0.140,0.045
'0:00.544',0.130,0.045
'0:00.546',0.125,0.040
'0:00.548',0.120,0.045
'0:00.550',0.105,0.050
'0:00.552',0.100,0.055
'0:00.554',0.120,0.060
'0:00.556',0.150,0.070
'0:00.558',0.160,0.075
'0:00.560',0.160,0.080
'0:00.562',0.170,0.085
'0:00.564',0.160,0.080
'0:00.566',0.120,0.075
'0:00.568',0.115,0.070
'0:00.570',0.115,0.065
'0:00.572',0.095,0.055
'0:00.574',0.095,0.050
'0:00.576',0.100,0.045
'0:00.578',0.095,0.040
'0:00.580',0.090,0.040
'0:00.582',0.090,0.035
'0:00.584',0.085,0.030
'0:00.586',0.055,0.020
'0:00.588',0.065,0.015
'0:00.590',0.060,0.010
'0:00.592',0.065,0.010
'0:00.594',0.075,0.005
'0:00.596',0.080,0.005
'0:00.598',0.080,0.010
'0:00.600',0.095,0.015
'0:00.602',0.075,0.015
'0:00.604',0.055,0.020
'0:00.606',0.050,0.020
'0:00.608',0.045,0.020
'0:00.610',0.035,0.020
'0:00.612',0.045,0.020
'0:00.614',0.045,0.015
'0:00.616',0.055,0.015
'0:00.618',0.060,0.015
'0:00.620',0.060,0.010
'0:00.622',0.060,0.010
'0:00.624',0.060,0.005
'0:00.626',0.050,0.005
'0:00.628',0.035,0.000
'0:00.630',0.020,-0.005
'0:00.632',0.025,-0.010
'0:00.634',0.035,-0.010
'0:00.636',0.045,-0.010
'0:00.638',0.055,-0.010
'0:00.640',0.060,-0.010
'0:00.642',0.055,-0.010
'0:00.644',0.035,-0.010
'0:00.646',0.025,-0.010
'0:00.648',0.030,-0.015
'0:00.650',0.020,-0.015
'0:00.652',0.030,-0.020
'0:00.654',0.050,-0.025
'0:00.656',0.030,-0.030
'0:00.658',0.040,-0.030
'0:00.660',0.050,-0.030
'0:00.662',0.040,-0.030
'0:00.664',0.025,-0.030
'0:00.666',0.000,-0.025
'0:00.668',-0.010,-0.025
'0:00.670',-0.025,-0.030
'0:00.672',-0.030,-0.035
'0:00.674',-0.025,-0.040
'0:00.676',-0.015,-0.045
'0:00.678',-0.005,-0.045
'0:00.680',0.030,-0.035
'0:00.682',0.065,-0.015
'0:00.684',0.110,0.025
'0:00.686',0.160,0.075
'0:00.688',0.200,0.140
'0:00.690',0.255,0.220
'0:00.692',0.335,0.305
'0:00.694',0.425,0.390
'0:00.696',0.530,0.470
'0:00.698',0.645,0.535
'0:00.700',0.720,0.590
'0:00.702',0.735,0.620
'0:00.704',0.685,0.625
'0:00.706',0.630,0.600
'0:00.708',0.570,0.555
'0:00.710',0.485,0.485
'0:00.712',0.410,0.395
'0:00.714',0.335,0.295
'0:00.716',0.230,0.190
'0:00.718',0.100,0.090
'0:00.720',0.010,0.000
'0:00.722',-0.060,-0.070
'0:00.724',-0.100,-0.120
'0:00.726',-0.100,-0.145
'0:00.728',-0.090,-0.150
'0:00.730',-0.085,-0.140
'0:00.732',-0.060,-0.115
'0:00.734',-0.020,-0.090
'0:00.736',0.010,-0.060
'0:00.738',0.035,-0.040
'0:00.740',0.040,-0.025
'0:00.742',0.035,-0.015
'0:00.744',0.015,-0.015
'0:00.746',-0.005,-0.020
'0:00.748',-0.020,-0.025
'0:00.750',-0.025,-0.035
'0:00.752',-0.010,-0.035
'0:00.754',0.000,-0.040
'0:00.756',0.005,-0.040
'0:00.758',0.025,-0.040
'0:00.760',0.025,-0.040
'0:00.762',0.020,-0.035
'0:00.764',0.000,-0.035
'0:00.766',0.005,-0.035
'0:00.768',-0.015,-0.040
'0:00.770',-0.020,-0.040
'0:00.772',-0.010,-0.040
'0:00.774',-0.010,-0.045
'0:00.776',0.000,-0.045
'0:00.778',0.010,-0.045
'0:00.780',0.000,-0.045
'0:00.782',0.005,-0.045
'0:00.784',0.005,-0.045
'0:00.786',-0.005,-0.040
'0:00.788',0.000,-0.040
'0:00.790',-0.010,-0.035
'0:00.792',0.000,-0.030
'0:00.794',0.015,-0.030
'0:00.796',0.020,-0.025
'0:00.798',0.025,-0.025
'0:00.800',0.040,-0.025
'0:00.802',0.025,-0.025
'0:00.804',0.010,-0.025
'0:00.806',0.000,-0.025
'0:00.808',-0.005,-0.025
'0:00.810',-0.005,-0.025
'0:00.812',0.005,-0.030
'0:00.814',0.025,-0.030
'0:00.816',0.025,-0.030
'0:00.818',0.030,-0.030
'0:00.820',0.025,-0.025
'0:00.822',0.010,-0.025
'0:00.824',0.020,-0.020
'0:00.826',0.005,-0.020
'0:00.828',0.010,-0.015
'0:00.830',0.005,-0.010
'0:00.832',0.015,-0.010
'0:00.834',0.020,-0.010
'0:00.836',0.035,-0.010
'0:00.838',0.040,-0.010
'0:00.840',0.050,-0.010
'0:00.842',0.050,-0.010
'0:00.844',0.045,-0.010
'0:00.846',0.040,-0.010
'0:00.848',0.025,-0.005
'0:00.850',0.030,0.000
'0:00.852',0.030,0.005
'0:00.854',0.040,0.010
'0:00.856',0.045,0.015
'0:00.858',0.055,0.020
'0:00.860',0.060,0.025
'0:00.862',0.065,0.025
'0:00.864',0.065,0.030
'0:00.866',0.070,0.030
'0:00.868',0.070,0.035
'0:00.870',0.065,0.040
'0:00.872',0.080,0.045
'0:00.874',0.095,0.050
'0:00.876',0.105,0.055
'0:00.878',0.105,0.065
'0:00.880',0.120,0.070
'0:00.882',0.115,0.070
'0:00.884',0.115,0.075
'0:00.886',0.110,0.075
'0:00.888',0.100,0.075
'0:00.890',0.100,0.075
'0:00.892',0.115,0.075
'0:00.894',0.130,0.080
'0:00.896',0.150,0.085
'0:00.898',0.155,0.090
'0:00.900',0.160,0.095
'0:00.902',0.150,0.105
'0:00.904',0.160,0.115
'0:00.906',0.165,0.120
'0:00.908',0.155,0.130
'0:00.910',0.160,0.135
'0:00.912',0.175,0.140
'0:00.914',0.200,0.140
'0:00.916',0.205,0.145
'0:00.918',0.210,0.145
'0:00.920',0.205,0.145
'0:00.922',0.195,0.145
'0:00.924',0.185,0.145
'0:00.926',0.180,0.150
'0:00.928',0.180,0.150
'0:00.930',0.180,0.155
'0:00.932',0.180,0.160
'0:00.934',0.200,0.165
'0:00.936',0.205,0.170
'0:00.938',0.205,0.175
'0:00.940',0.195,0.175
'0:00.942',0.170,0.170
'0:00.944',0.150,0.165
'0:00.946',0.135,0.155
'0:00.948',0.130,0.140
'0:00.950',0.125,0.130
'0:00.952',0.130,0.120
'0:00.954',0.115,0.115
'0:00.956',0.130,0.110
'0:00.958',0.130,0.105
'0:00.960',0.115,0.100
'0:00.962',0.095,0.095
'0:00.964',0.080,0.085
'0:00.966',0.070,0.075
'0:00.968',0.055,0.060
'0:00.970',0.030,0.045
'0:00.972',0.015,0.030
'0:00.974',0.025,0.015
'0:00.976',0.025,0.005
'0:00.978',0.020,-0.005
'0:00.980',0.010,-0.005
'0:00.982',-0.005,-0.005
'0:00.984',-0.020,-0.005
'0:00.986',-0.025,-0.005
'0:00.988',-0.035,-0.005
'0:00.990',-0.030,-0.010
'0:00.992',-0.010,-0.015
'0:00.994',0.000,-0.025
'0:00.996',-0.010,-0.035
'0:00.998',-0.005,-0.040
'0:01.000',-0.010,-0.045
'0:01.002',-0.030,-0.050
'0:01.004',-0.040,-0.050
'0:01.006',-0.055,-0.050
'0:01.008',-0.065,-0.045
'0:01.010',-0.055,-0.050
'0:01.012',-0.040,-0.050
'0:01.014',-0.045,-0.055
'0:01.016',-0.025,-0.060
'0:01.018',-0.035,-0.070
'0:01.020',-0.030,-0.075
'0:01.022',-0.050,-0.075
'0:01.024',-0.055,-0.080
'0:01.026',-0.060,-0.080
'0:01.028',-0.060,-0.075
'0:01.030',-0.045,-0.070
'0:01.032',-0.045,-0.065
'0:01.034',-0.035,-0.060
'0:01.036',-0.020,-0.060
'0:01.038',-0.030,-0.055
'0:01.040',-0.030,-0.055
'0:01.042',-0.050,-0.055
'0:01.044',-0.055,-0.055
'0:01.046',-0.055,-0.055
'0:01.048',-0.060,-0.055
'0:01.050',-0.055,-0.055
'0:01.052',-0.050,-0.055
'0:01.054',-0.040,-0.055
'0:01.056',-0.055,-0.060
'0:01.058',-0.030,-0.060
'0:01.060',-0.055,-0.065
'0:01.062',-0.050,-0.065
'0:01.064',-0.050,-0.065
'0:01.066',-0.060,-0.065
'0:01.068',-0.060,-0.060
'0:01.070',-0.045,-0.060
'0:01.072',-0.040,-0.055
'0:01.074',-0.040,-0.055
'0:01.076',-0.040,-0.055
'0:01.078',-0.040,-0.050
'0:01.080',-0.050,-0.055
'0:01.082',-0.055,-0.055
'0:01.084',-0.055,-0.055
'0:01.086',-0.060,-0.060
'0:01.088',-0.055,-0.060
'0:01.090',-0.030,-0.060
'0:01.092',-0.030,-0.060
'0:01.094',-0.025,-0.060
'0:01.096',-0.020,-0.060
'0:01.098',-0.015,-0.065
'0:01.100',-0.025,-0.065
'0:01.102',-0.035,-0.065
'0:01.104',-0.045,-0.070
'0:01.106',-0.050,-0.070
'0:01.108',-0.055,-0.070
'0:01.110',-0.045,-0.070
'0:01.112',-0.040,-0.065
'0:01.114',-0.020,-0.065
'0:01.116',-0.015,-0.060
'0:01.118',-0.010,-0.055
'0:01.120',-0.015,-0.055
'0:01.122',-0.020,-0.050
'0:01.124',-0.030,-0.055
'0:01.126',-0.035,-0.055
'0:01.128',-0.040,-0.055
'0:01.130',-0.030,-0.060
'0:01.132',-0.030,-0.060
'0:01.134',-0.025,-0.060
'0:01.136',-0.015,-0.060
'0:01.138',-0.015,-0.055
'0:01.140',-0.025,-0.055
'0:01.142',-0.020,-0.050
'0:01.144',-0.035,-0.045
'0:01.146',-0.040,-0.040
'0:01.148',-0.045,-0.040
'0:01.150',-0.045,-0.035
'0:01.152',-0.030,-0.035
'0:01.154',-0.025,-0.035
'0:01.156',-0.005,-0.035
'0:01.158',-0.010,-0.035
'0:01.160',-0.030,-0.035
'0:01.162',-0.030,-0.035
'0:01.164',-0.035,-0.035
'0:01.166',-0.050,-0.035
'0:01.168',-0.060,-0.030
'0:01.170',-0.040,-0.030
'0:01.172',-0.040,-0.030
'0:01.174',-0.030,-0.035
'0:01.176',-0.020,-0.035
'0:01.178',-0.025,-0.035
'0:01.180',-0.040,-0.040
'0:01.182',-0.045,-0.045
'0:01.184',-0.020,-0.045
'0:01.186',-0.050,-0.050
'0:01.188',-0.055,-0.050
'0:01.190',-0.040,-0.050
'0:01.192',-0.030,-0.050
'0:01.194',-0.035,-0.050
'0:01.196',-0.015,-0.050
'0:01.198',-0.020,-0.050
'0:01.200',-0.040,-0.050
'0:01.202',-0.050,-0.050
'0:01.204',-0.055,-0.055
'0:01.206',-0.060,-0.055
'0:01.208',-0.060,-0.060
'0:01.210',-0.055,-0.060
'0:01.212',-0.040,-0.065
'0:01.214',-0.040,-0.065
'0:01.216',-0.035,-0.065
'0:01.218',-0.020,-0.060
'0:01.220',-0.035,-0.060
'0:01.222',-0.045,-0.060
'0:01.224',-0.050,-0.060
'0:01.226',-0.070,-0.060
'0:01.228',-0.070,-0.060
'0:01.230',-0.050,-0.060
'0:01.232',-0.045,-0.060
'0:01.234',-0.035,-0.060
'0:01.236',-0.035,-0.060
'0:01.238',-0.035,-0.060
'0:01.240',-0.045,-0.060
'0:01.242',-0.055,-0.055
'0:01.244',-0.050,-0.050
'0:01.246',-0.050,-0.050
'0:01.248',-0.040,-0.045
'0:01.250',-0.035,-0.045
'0:01.252',-0.025,-0.040
'0:01.254',-0.005,-0.040
'0:01.256',-0.010,-0.040
'0:01.258',-0.025,-0.035
'0:01.260',-0.040,-0.035
'0:01.262',-0.030,-0.030
'0:01.264',-0.035,-0.030
'0:01.266',-0.040,-0.025
'0:01.268',-0.040,-0.025
'0:01.270',-0.025,-0.020
'0:01.272',-0.015,-0.020
'0:01.274',-0.010,-0.020
'0:01.276',0.015,-0.020
'0:01.278',-0.005,-0.020
'0:01.280',-0.005,-0.020
'0:01.282',-0.015,-0.020
'0:01.284',-0.020,-0.025
'0:01.286',-0.025,-0.025
'0:01.288',-0.025,-0.030
'0:01.290',-0.010,-0.030
'0:01.292',0.005,-0.035
'0:01.294',0.015,-0.035
'0:01.296',0.020,-0.035
'0:01.298',0.015,-0.030
'0:01.300',0.005,-0.030
'0:01.302',0.005,-0.025
'0:01.304',0.000,-0.015
'0:01.306',0.000,-0.010
'0:01.308',0.000,-0.005
'0:01.310',0.000,0.000
'0:01.312',0.005,0.000
'0:01.314',0.020,0.000
'0:01.316',0.030,0.000
'0:01.318',0.020,-0.005
'0:01.320',-0.010,-0.010
'0:01.322',-0.025,-0.015
'0:01.324',-0.035,-0.020
'0:01.326',-0.055,-0.025
'0:01.328',-0.050,-0.030
'0:01.330',-0.045,-0.035
'0:01.332',-0.040,-0.040
'0:01.334',-0.045,-0.045
'0:01.336',-0.025,-0.055
'0:01.338',-0.035,-0.060
'0:01.340',-0.060,-0.070
'0:01.342',-0.060,-0.075
'0:01.344',-0.070,-0.080
'0:01.346',-0.080,-0.080
'0:01.348',-0.065,-0.080
'0:01.350',-0.055,-0.080
'0:01.352',-0.050,-0.075
'0:01.354',-0.050,-0.075
'0:01.356',-0.035,-0.075
'0:01.358',-0.055,-0.075
'0:01.360',-0.055,-0.075
'0:01.362',-0.060,-0.075
'0:01.364',-0.065,-0.075
'0:01.366',-0.065,-0.075
'0:01.368',-0.060,-0.075
'0:01.370',-0.065,-0.075
'0:01.372',-0.065,-0.075
'0:01.374',-0.065,-0.075
'0:01.376',-0.065,-0.080
'0:01.378',-0.065,-0.080
'0:01.380',-0.080,-0.085
'0:01.382',-0.085,-0.090
'0:01.384',-0.080,-0.095
'0:01.386',-0.100,-0.095
'0:01.388',-0.090,-0.095
'0:01.390',-0.080,-0.095
'0:01.392',-0.060,-0.090
'0:01.394',-0.045,-0.085
'0:01.396',-0.045,-0.085
'0:01.398',-0.055,-0.085
'0:01.400',-0.060,-0.085
'0:01.402',-0.085,-0.090
'0:01.404',-0.085,-0.095
'0:01.406',-0.100,-0.100
'0:01.408',-0.100,-0.105
'0:01.410',-0.080,-0.105
'0:01.412',-0.075,-0.105
'0:01.414',-0.070,-0.105
'0:01.416',-0.075,-0.105
'0:01.418',-0.095,-0.105
'0:01.420',-0.105,-0.110
'0:01.422',-0.115,-0.115
'0:01.424',-0.140,-0.125
'0:01.426',-0.155,-0.130
'0:01.428',-0.135,-0.130
'0:01.430',-0.105,-0.120
'0:01.432',-0.045,-0.095
'0:01.434',0.020,-0.055
'0:01.436',0.075,-0.005
'0:01.438',0.125,0.060
'0:01.440',0.170,0.140
'0:01.442',0.225,0.225
'0:01.444',0.275,0.310
'0:01.446',0.390,0.395
'0:01.448',0.515,0.470
'0:01.450',0.640,0.530
'0:01.452',0.690,0.575
'0:01.454',0.660,0.595
'0:01.456',0.615,0.590
'0:01.458',0.555,0.555
'0:01.460',0.485,0.495
'0:01.462',0.390,0.410
'0:01.464',0.305,0.310
'0:01.466',0.195,0.200
'0:01.468',0.085,0.085
'0:01.470',-0.030,-0.015
'0:01.472',-0.115,-0.095
'0:01.474',-0.155,-0.150
'0:01.476',-0.145,-0.180
'0:01.478',-0.125,-0.185
'0:01.480',-0.115,-0.170
'0:01.482',-0.110,-0.140
'0:01.484',-0.085,-0.110
'0:01.486',-0.050,-0.080
'0:01.488',-0.055,-0.060
'0:01.490',-0.030,-0.055
'0:01.492',-0.035,-0.055
'0:01.494',-0.045,-0.065
'0:01.496',-0.040,-0.075
'0:01.498',-0.040,-0.085
'0:01.500',-0.065,-0.095
'0:01.502',-0.070,-0.100
'0:01.504',-0.080,-0.100
'0:01.506',-0.075,-0.095
'0:01.508',-0.070,-0.090
'0:01.510',-0.060,-0.085
'0:01.512',-0.050,-0.085
'0:01.514',-0.030,-0.080
'0:01.516',-0.045,-0.080
'0:01.518',-0.045,-0.080
'0:01.520',-0.055,-0.080
'0:01.522',-0.060,-0.080
'0:01.524',-0.055,-0.080
'0:01.526',-0.060,-0.075
'0:01.528',-0.040,-0.070
'0:01.530',-0.035,-0.070
'0:01.532',-0.025,-0.065
'0:01.534',-0.010,-0.065
'0:01.536',-0.025,-0.065
'0:01.538',-0.045,-0.070
'0:01.540',-0.050,-0.070
'0:01.542',-0.055,-0.070
'0:01.544',-0.050,-0.065
'0:01.546',-0.055,-0.065
'0:01.548',-0.030,-0.060
'0:01.550',-0.025,-0.055
'0:01.552',-0.020,-0.050
'0:01.554',-0.010,-0.045
'0:01.556',-0.010,-0.045
'0:01.558',-0.020,-0.040
'0:01.560',-0.030,-0.040
'0:01.562',-0.025,-0.035
'0:01.564',-0.020,-0.035
'0:01.566',-0.015,-0.030
'0:01.568',0.005,-0.025
'0:01.570',0.020,-0.025
'0:01.572',0.025,-0.020
'0:01.574',0.025,-0.015
'0:01.576',0.015,-0.015
'0:01.578',0.005,-0.015
'0:01.580',-0.010,-0.015
'0:01.582',-0.010,-0.020
'0:01.584',-0.010,-0.020
'0:01.586',0.010,-0.020
'0:01.588',0.015,-0.020
'0:01.590',0.025,-0.020
'0:01.592',0.045,-0.015
'0:01.594',0.060,-0.010
'0:01.596',0.065,-0.005
'0:01.598',0.050,0.005
'0:01.600',0.040,0.010
'0:01.602',0.045,0.015
'0:01.604',0.040,0.020
'0:01.606',0.045,0.020
'0:01.608',0.045,0.020
'0:01.610',0.060,0.020
'0:01.612',0.065,0.020
'0:01.614',0.070,0.015
'0:01.616',0.065,0.015
'0:01.618',0.065,0.010
'0:01.620',0.065,0.010
'0:01.622',0.065,0.015
'0:01.624',0.075,0.020
'0:01.626',0.080,0.025
'0:01.628',0.100,0.035
'0:01.630',0.115,0.045
'0:01.632',0.125,0.060
'0:01.634',0.130,0.070
'0:01.636',0.140,0.075
'0:01.638',0.140,0.085
'0:01.640',0.150,0.090
'0:01.642',0.135,0.095
'0:01.644',0.130,0.100
'0:01.646',0.140,0.105
'0:01.648',0.170,0.110
'0:01.650',0.175,0.115
'0:01.652',0.190,0.125
'0:01.654',0.200,0.130
'0:01.656',0.205,0.140
'0:01.658',0.190,0.145
'0:01.660',0.200,0.155
'0:01.662',0.200,0.160
'0:01.664',0.195,0.160
'0:01.666',0.210,0.165
'0:01.668',0.225,0.165
'0:01.670',0.235,0.165
'0:01.672',0.230,0.170
'0:01.674',0.240,0.175
'0:01.676',0.225,0.175
'0:01.678',0.225,0.175
'0:01.680',0.205,0.175
'0:01.682',0.200,0.175
'0:01.684',0.190,0.170
'0:01.686',0.190,0.165
'0:01.688',0.205,0.155
'0:01.690',0.205,0.150
'0:01.692',0.220,0.145
'0:01.694',0.230,0.140
'0:01.696',0.205,0.140
'0:01.698',0.195,0.140
'0:01.700',0.175,0.140
'0:01.702',0.165,0.140
'0:01.704',0.155,0.135
'0:01.706',0.150,0.130
'0:01.708',0.140,0.120
'0:01.710',0.135,0.110
'0:01.712',0.130,0.090
'0:01.714',0.110,0.075
'0:01.716',0.105,0.060
'0:01.718',0.085,0.045
'0:01.720',0.075,0.035
'0:01.722',0.065,0.030
'0:01.724',0.060,0.030
'0:01.726',0.065,0.025
'0:01.728',0.060,0.025
'0:01.730',0.060,0.020
'0:01.732',0.050,0.020
'0:01.734',0.045,0.010
'0:01.736',0.040,0.000
'0:01.738',0.020,-0.010
'0:01.740',0.010,-0.020
'0:01.742',0.000,-0.030
'0:01.744',0.000,-0.035
'0:01.746',0.010,-0.040
'0:01.748',0.015,-0.045
'0:01.750',0.010,-0.045
'0:01.752',0.020,-0.045
'0:01.754',0.010,-0.045
'0:01.756',0.000,-0.050
'0:01.758',-0.020,-0.050
'0:01.760',-0.020,-0.055
'0:01.762',-0.040,-0.060
'0:01.764',-0.035,-0.060
'0:01.766',-0.025,-0.065
'0:01.768',-0.015,-0.065
'0:01.770',-0.005,-0.070
'0:01.772',0.005,-0.070
'0:01.774',-0.005,-0.065
'0:01.776',-0.020,-0.065
'0:01.778',-0.025,-0.060
'0:01.780',-0.025,-0.060
'0:01.782',-0.025,-0.060
'0:01.784',-0.025,-0.055
'0:01.786',-0.025,-0.055
'0:01.788',-0.010,-0.060
'0:01.790',0.005,-0.060
'0:01.792',0.015,-0.060
'0:01.794',0.010,-0.060
'0:01.796',0.005,-0.060
'0:01.798',-0.020,-0.060
'0:01.800',-0.015,-0.065
'0:01.802',-0.015,-0.065
'0:01.804',-0.020,-0.065
'0:01.806',-0.025,-0.065
'0:01.808',-0.020,-0.065
'0:01.810',-0.020,-0.070
'0:01.812',0.000,-0.070
'0:01.814',0.015,-0.070
'0:01.816',-0.005,-0.075
'0:01.818',-0.010,-0.075
'0:01.820',-0.020,-0.080
'0:01.822',-0.030,-0.085
'0:01.824',-0.030,-0.090
'0:01.826',-0.015,-0.090
'0:01.828',0.000,-0.095
'0:01.830',0.010,-0.095
'0:01.832',0.015,-0.095
'0:01.834',0.015,-0.090
'0:01.836',-0.005,-0.085
'0:01.838',-0.010,-0.080
'0:01.840',-0.035,-0.075
'0:01.842',-0.025,-0.070
'0:01.844',-0.025,-0.065
'0:01.846',-0.020,-0.065
'0:01.848',0.005,-0.065
'0:01.850',0.015,-0.065
'0:01.852',0.020,-0.065
'0:01.854',0.025,-0.070
'0:01.856',0.000,-0.070
'0:01.858',-0.010,-0.070
'0:01.860',-0.025,-0.065
'0:01.862',-0.035,-0.065
'0:01.864',-0.020,-0.060
'0:01.866',-0.010,-0.060
'0:01.868',0.005,-0.055
'0:01.870',0.005,-0.055
'0:01.872',0.010,-0.060
'0:01.874',0.015,-0.060
'0:01.876',0.000,-0.065
'0:01.878',-0.005,-0.065
'0:01.880',-0.020,-0.070
'0:01.882',-0.025,-0.070
'0:01.884',-0.025,-0.075
'0:01.886',-0.015,-0.075
'0:01.888',0.000,-0.075
'0:01.890',0.005,-0.075
'0:01.892',0.015,-0.075
'0:01.894',0.020,-0.075
'0:01.896',0.000,-0.075
'0:01.898',-0.015,-0.075
'0:01.900',-0.020,-0.075
'0:01.902',-0.030,-0.080
'0:01.904',-0.025,-0.080
'0:01.906',-0.005,-0.080
'0:01.908',-0.005,-0.080
'0:01.910',0.000,-0.080
'0:01.912',0.010,-0.080
'0:01.914',0.015,-0.080
'0:01.916',0.005,-0.080
'0:01.918',-0.010,-0.080
'0:01.920',-0.015,-0.080
'0:01.922',-0.020,-0.080
'0:01.924',-0.015,-0.080
'0:01.926',-0.005,-0.085
'0:01.928',-0.005,-0.085
'0:01.930',-0.005,-0.085
'0:01.932',-0.010,-0.085
'0:01.934',-0.010,-0.090
'0:01.936',-0.010,-0.090
'0:01.938',-0.015,-0.095
'0:01.940',-0.025,-0.095
'0:01.942',-0.025,-0.100
'0:01.944',-0.020,-0.100
'0:01.946',-0.010,-0.100
'0:01.948',-0.010,-0.100
'0:01.950',-0.005,-0.100
'0:01.952',-0.005,-0.100
'0:01.954',-0.010,-0.100
'0:01.956',-0.025,-0.100
'0:01.958',-0.025,-0.100
'0:01.960',-0.025,-0.100
'0:01.962',-0.035,-0.105
'0:01.964',-0.030,-0.105
'0:01.966',-0.020,-0.110
'0:01.968',-0.010,-0.110
'0:01.970',-0.005,-0.110
'0:01.972',-0.010,-0.115
'0:01.974',-0.015,-0.115
'0:01.976',-0.025,-0.115
'0:01.978',-0.030,-0.115
'0:01.980',-0.035,-0.115
'0:01.982',-0.040,-0.115
'0:01.984',-0.025,-0.115
'0:01.986',-0.020,-0.115
'0:01.988',-0.015,-0.115
'0:01.990',-0.005,-0.110
'0:01.992',0.000,-0.110
'0:01.994',-0.010,-0.110
'0:01.996',-0.025,-0.105
'0:01.998',-0.030,-0.105
'0:02.000',-0.045,-0.105
'0:02.002',-0.045,-0.110
'0:02.004',-0.045,-0.110
'0:02.006',-0.035,-0.115
'0:02.008',-0.040,-0.120
'0:02.010',-0.025,-0.120
'0:02.012',-0.010,-0.125
'0:02.014',-0.025,-0.120
'0:02.016',-0.040,-0.120
'0:02.018',-0.040,-0.110
'0:02.020',-0.030,-0.105
'0:02.022',-0.035,-0.100
'0:02.024',-0.040,-0.095
'0:02.026',-0.025,-0.090
'0:02.028',-0.020,-0.095
'0:02.030',-0.015,-0.100
'0:02.032',-0.005,-0.105
'0:02.034',-0.010,-0.110
'0:02.036',-0.025,-0.115
'0:02.038',-0.040,-0.120
'0:02.040',-0.045,-0.120
'0:02.042',-0.040,-0.120
'0:02.044',-0.020,-0.120
'0:02.046',-0.015,-0.115
'0:02.048',-0.010,-0.115
'0:02.050',0.000,-0.115
'0:02.052',-0.005,-0.115
'0:02.054',-0.010,-0.110
'0:02.056',-0.010,-0.110
'0:02.058',-0.015,-0.105
'0:02.060',0.000,-0.095
'0:02.062',0.010,-0.085
'0:02.064',0.025,-0.070
'0:02.066',0.065,-0.055
'0:02.068',0.070,-0.040
'0:02.070',0.085,-0.025
'0:02.072',0.100,-0.010
'0:02.074',0.100,0.000
'0:02.076',0.090,0.005
'0:02.078',0.090,0.010
'0:02.080',0.095,0.015
'0:02.082',0.085,0.015
'0:02.084',0.100,0.015
'0:02.086',0.105,0.015
'0:02.088',0.110,0.020
'0:02.090',0.120,0.020
'0:02.092',0.125,0.025
'0:02.094',0.130,0.030
'0:02.096',0.145,0.040
'0:02.098',0.155,0.045
'0:02.100',0.145,0.050
'0:02.102',0.135,0.060
'0:02.104',0.150,0.065
'0:02.106',0.165,0.070
'0:02.108',0.180,0.075
'0:02.110',0.185,0.080
'0:02.112',0.175,0.080
'0:02.114',0.170,0.080
'0:02.116',0.165,0.085
'0:02.118',0.175,0.085
'0:02.120',0.170,0.085
'0:02.122',0.160,0.085
'0:02.124',0.170,0.080
'0:02.126',0.170,0.080
'0:02.128',0.170,0.080
'0:02.130',0.165,0.075
'0:02.132',0.160,0.075
'0:02.134',0.150,0.070
'0:02.136',0.135,0.065
'0:02.138',0.115,0.065
'0:02.140',0.115,0.060
'0:02.142',0.105,0.055
'0:02.144',0.110,0.055
'0:02.146',0.120,0.050
'0:02.148',0.125,0.045
'0:02.150',0.130,0.040
'0:02.152',0.140,0.040
'0:02.154',0.125,0.035
'0:02.156',0.125,0.030
'0:02.158',0.120,0.030
'0:02.160',0.110,0.030
'0:02.162',0.095,0.030
'0:02.164',0.095,0.030
'0:02.166',0.095,0.035
'0:02.168',0.105,0.035
'0:02.170',0.115,0.035
'0:02.172',0.120,0.035
'0:02.174',0.105,0.030
'0:02.176',0.095,0.025
'0:02.178',0.080,0.020
'0:02.180',0.075,0.015
'0:02.182',0.075,0.010
'0:02.184',0.090,0.005
'0:02.186',0.110,0.000
'0:02.188',0.115,-0.005
'0:02.190',0.120,-0.005
'0:02.192',0.125,-0.005
'0:02.194',0.095,-0.005
'0:02.196',0.080,-0.005
'0:02.198',0.070,0.000
'0:02.200',0.060,0.000
'0:02.202',0.085,0.005
'0:02.204',0.100,0.005
'0:02.206',0.100,0.010
'0:02.208',0.105,0.010
'0:02.210',0.115,0.005
'0:02.212',0.105,0.005
'0:02.214',0.095,0.005
'0:02.216',0.085,0.000
'0:02.218',0.075,0.000
'0:02.220',0.070,0.000
'0:02.222',0.080,0.000
'0:02.224',0.075,-0.005
'0:02.226',0.080,-0.005
'0:02.228',0.090,-0.005
'0:02.230',0.080,-0.010
'0:02.232',0.090,-0.020
'0:02.234',0.055,-0.025
'0:02.236',0.045,-0.035
'0:02.238',0.020,-0.040
'0:02.240',0.020,-0.045
'0:02.242',0.040,-0.040
'0:02.244',0.070,-0.025
'0:02.246',0.115,0.000
'0:02.248',0.175,0.040
'0:02.250',0.235,0.090
'0:02.252',0.280,0.155
'0:02.254',0.325,0.230
'0:02.256',0.385,0.310
'0:02.258',0.445,0.400
'0:02.260',0.555,0.490
'0:02.262',0.680,0.575
'0:02.264',0.820,0.650
'0:02.266',0.890,0.705
'0:02.268',0.860,0.735
'0:02.270',0.840,0.735
'0:02.272',0.775,0.705
'0:02.274',0.695,0.640
'0:02.276',0.595,0.550
'0:02.278',0.505,0.440
'0:02.280',0.395,0.320
'0:02.282',0.265,0.205
'0:02.284',0.155,0.100
'0:02.286',0.050,0.015
'0:02.288',0.010,-0.045
'0:02.290',0.035,-0.075
'0:02.292',0.040,-0.085
'0:02.294',0.040,-0.075
'0:02.296',0.055,-0.055
'0:02.298',0.060,-0.035
'0:02.300',0.075,-0.010
'0:02.302',0.095,0.005
'0:02.304',0.120,0.010
'0:02.306',0.130,0.015
'0:02.308',0.125,0.015
'0:02.310',0.130,0.015
'0:02.312',0.120,0.015
'0:02.314',0.105,0.020
'0:02.316',0.090,0.025
'0:02.318',0.085,0.030
'0:02.320',0.090,0.030
'0:02.322',0.105,0.035
'0:02.324',0.110,0.035
'0:02.326',0.110,0.030
'0:02.328',0.120,0.025
'0:02.330',0.130,0.020
'0:02.332',0.125,0.015
'0:02.334',0.110,0.010
'0:02.336',0.090,0.010
'0:02.338',0.075,0.015
'0:02.340',0.080,0.020
'0:02.342',0.095,0.025
'0:02.344',0.115,0.030
'0:02.346',0.115,0.030
'0:02.348',0.115,0.035
'0:02.350',0.140,0.030
'0:02.352',0.110,0.030
'0:02.354',0.100,0.025
'0:02.356',0.095,0.025
'0:02.358',0.085,0.025
'0:02.360',0.100,0.020
'0:02.362',0.120,0.020
'0:02.364',0.130,0.020
'0:02.366',0.135,0.020
'0:02.368',0.140,0.020
'0:02.370',0.145,0.020
'0:02.372',0.130,0.020
'0:02.374',0.115,0.020
'0:02.376',0.110,0.020
'0:02.378',0.105,0.020
'0:02.380',0.110,0.025
'0:02.382',0.130,0.025
'0:02.384',0.140,0.030
'0:02.386',0.150,0.035
'0:02.388',0.155,0.040
'0:02.390',0.165,0.040
'0:02.392',0.135,0.045
'0:02.394',0.115,0.045
'0:02.396',0.110,0.045
'0:02.398',0.115,0.045
'0:02.400',0.110,0.045
'0:02.402',0.130,0.040
'0:02.404',0.135,0.040
'0:02.406',0.140,0.040
'0:02.408',0.155,0.045
'0:02.410',0.165,0.045
'0:02.412',0.160,0.045
'0:02.414',0.150,0.050
'0:02.416',0.145,0.050
'0:02.418',0.145,0.050
'0:02.420',0.135,0.055
'0:02.422',0.140,0.055
'0:02.424',0.165,0.060
'0:02.426',0.170,0.065
'0:02.428',0.175,0.070
'0:02.430',0.170,0.075
'0:02.432',0.170,0.080
'0:02.434',0.165,0.085
'0:02.436',0.175,0.090
'0:02.438',0.160,0.090
'0:02.440',0.165,0.095
'0:02.442',0.180,0.095
'0:02.444',0.210,0.095
'0:02.446',0.215,0.100
'0:02.448',0.225,0.105
'0:02.450',0.225,0.110
'0:02.452',0.215,0.120
'0:02.454',0.210,0.130
'0:02.456',0.220,0.140
'0:02.458',0.200,0.150
'0:02.460',0.225,0.165
'0:02.462',0.250,0.170
'0:02.464',0.255,0.180
'0:02.466',0.260,0.185
'0:02.468',0.270,0.185
'0:02.470',0.270,0.190
'0:02.472',0.270,0.190
'0:02.474',0.265,0.190
'0:02.476',0.265,0.190
'0:02.478',0.250,0.190
'0:02.480',0.265,0.195
'0:02.482',0.265,0.200
'0:02.484',0.280,0.205
'0:02.486',0.295,0.205
'0:02.488',0.295,0.210
'0:02.490',0.290,0.215
'0:02.492',0.290,0.215
'0:02.494',0.285,0.215
'0:02.496',0.280,0.210
'0:02.498',0.260,0.205
'0:02.500',0.260,0.200
'0:02.502',0.255,0.195
'0:02.504',0.260,0.190
'0:02.506',0.260,0.185
'0:02.508',0.270,0.185
'0:02.510',0.260,0.180
'0:02.512',0.235,0.175
'0:02.514',0.220,0.170
'0:02.516',0.190,0.160
'0:02.518',0.170,0.150
'0:02.520',0.170,0.135
'0:02.522',0.150,0.120
'0:02.524',0.155,0.105
'0:02.526',0.160,0.090
'0:02.528',0.150,0.075
'0:02.530',0.130,0.065
'0:02.532',0.120,0.055
'0:02.534',0.095,0.050
'0:02.536',0.095,0.045
'0:02.538',0.075,0.045
'0:02.540',0.080,0.040
'0:02.542',0.075,0.030
'0:02.544',0.075,0.025
'0:02.546',0.065,0.015
'0:02.548',0.065,0.005
'0:02.550',0.035,-0.005
'0:02.552',0.030,-0.015
'0:02.554',0.020,-0.020
'0:02.556',0.015,-0.025
'0:02.558',-0.005,-0.030
'0:02.560',0.000,-0.030
'0:02.562',0.010,-0.035
'0:02.564',0.010,-0.035
'0:02.566',0.010,-0.040
'0:02.568',0.030,-0.050
'0:02.570',0.015,-0.055
'0:02.572',0.005,-0.060
'0:02.574',-0.010,-0.065
'0:02.576',-0.020,-0.065
'0:02.578',-0.030,-0.065
'0:02.580',-0.020,-0.065
'0:02.582',-0.015,-0.060
'0:02.584',-0.010,-0.060
'0:02.586',-0.005,-0.060
'0:02.588',0.010,-0.065
'0:02.590',-0.010,-0.070
'0:02.592',-0.005,-0.075
'0:02.594',-0.025,-0.080
'0:02.596',-0.055,-0.090
'0:02.598',-0.040,-0.090
'0:02.600',-0.035,-0.090
'0:02.602',-0.010,-0.090
'0:02.604',0.000,-0.085
'0:02.606',0.005,-0.080
'0:02.608',0.005,-0.075
'0:02.610',-0.005,-0.075
'0:02.612',-0.030,-0.075
'0:02.614',-0.035,-0.080
'0:02.616',-0.040,-0.085
'0:02.618',-0.030,-0.090
'0:02.620',-0.035,-0.095
'0:02.622',-0.030,-0.100
'0:02.624',-0.020,-0.100
'0:02.626',-0.015,-0.100
'0:02.628',-0.010,-0.100
'0:02.630',-0.025,-0.090
'0:02.632',-0.035,-0.085
'0:02.634',-0.055,-0.075
'0:02.636',-0.055,-0.070
'0:02.638',-0.050,-0.065
'0:02.640',-0.040,-0.060
'0:02.642',-0.025,-0.065
'0:02.644',-0.015,-0.065
'0:02.646',-0.020,-0.070
'0:02.648',-0.010,-0.075
'0:02.650',-0.025,-0.080
'0:02.652',-0.030,-0.085
'0:02.654',-0.035,-0.085
'0:02.656',-0.050,-0.090
'0:02.658',-0.055,-0.090
'0:02.660',-0.040,-0.090
'0:02.662',-0.040,-0.085
'0:02.664',-0.020,-0.085
'0:02.666',-0.015,-0.080
'0:02.668',-0.020,-0.080
'0:02.670',-0.030,-0.075
'0:02.672',-0.045,-0.075
'0:02.674',-0.050,-0.070
'0:02.676',-0.055,-0.070
'0:02.678',-0.055,-0.070
'0:02.680',-0.050,-0.070
'0:02.682',-0.020,-0.075
'0:02.684',-0.025,-0.075
'0:02.686',-0.025,-0.080
'0:02.688',-0.015,-0.085
'0:02.690',-0.035,-0.085
'0:02.692',-0.040,-0.085
'0:02.694',-0.040,-0.085
'0:02.696',-0.040,-0.085
'0:02.698',-0.040,-0.080
'0:02.700',-0.025,-0.080
'0:02.702',-0.035,-0.075
'0:02.704',-0.030,-0.075
'0:02.706',-0.025,-0.075
'0:02.708',-0.030,-0.075
'0:02.710',-0.045,-0.075
'0:02.712',-0.060,-0.080
'0:02.714',-0.060,-0.080
'0:02.716',-0.065,-0.080
'0:02.718',-0.060,-0.080
'0:02.720',-0.040,-0.080
'0:02.722',-0.030,-0.080
'0:02.724',-0.035,-0.080
'0:02.726',-0.030,-0.080
'0:02.728',-0.025,-0.085
'0:02.730',-0.045,-0.090
'0:02.732',-0.045,-0.090
'0:02.734',-0.065,-0.095
'0:02.736',-0.070,-0.095
'0:02.738',-0.065,-0.100
'0:02.740',-0.055,-0.100
'0:02.742',-0.050,-0.100
'0:02.744',-0.035,-0.095
'0:02.746',-0.030,-0.095
'0:02.748',-0.030,-0.095
'0:02.750',-0.045,-0.090
'0:02.752',-0.060,-0.090
'0:02.754',-0.065,-0.090
'0:02.756',-0.075,-0.090
'0:02.758',-0.070,-0.090
'0:02.760',-0.050,-0.095
'0:02.762',-0.050,-0.095
'0:02.764',-0.040,-0.095
'0:02.766',-0.030,-0.090
'0:02.768',-0.040,-0.090
'0:02.770',-0.045,-0.085
'0:02.772',-0.060,-0.080
'0:02.774',-0.060,-0.075
'0:02.776',-0.065,-0.070
'0:02.778',-0.075,-0.070
'0:02.780',-0.070,-0.065
'0:02.782',-0.060,-0.065
'0:02.784',-0.055,-0.065
'0:02.786',-0.045,-0.070
'0:02.788',-0.050,-0.075
'0:02.790',-0.055,-0.080
'0:02.792',-0.065,-0.090
'0:02.794',-0.065,-0.095
'0:02.796',-0.080,-0.095
'0:02.798',-0.065,-0.100
'0:02.800',-0.055,-0.095
'0:02.802',-0.040,-0.095
'0:02.804',-0.040,-0.090
'0:02.806',-0.030,-0.080
'0:02.808',-0.035,-0.080
'0:02.810',-0.050,-0.075
'0:02.812',-0.075,-0.075
'0:02.814',-0.075,-0.075
'0:02.816',-0.095,-0.080
'0:02.818',-0.090,-0.085
'0:02.820',-0.065,-0.085
'0:02.822',-0.055,-0.090
'0:02.824',-0.045,-0.095
'0:02.826',-0.045,-0.095
'0:02.828',-0.055,-0.095
'0:02.830',-0.070,-0.095
'0:02.832',-0.080,-0.095
'0:02.834',-0.075,-0.095
'0:02.836',-0.075,-0.095
'0:02.838',-0.065,-0.095
'0:02.840',-0.060,-0.100
'0:02.842',-0.055,-0.100
'0:02.844',-0.045,-0.100
'0:02.846',-0.040,-0.100
'0:02.848',-0.040,-0.100
'0:02.850',-0.055,-0.100
'0:02.852',-0.075,-0.100
'0:02.854',-0.075,-0.100
'0:02.856',-0.080,-0.100
'0:02.858',-0.065,-0.095
'0:02.860',-0.060,-0.095
'0:02.862',-0.055,-0.095
'0:02.864',-0.060,-0.090
'0:02.866',-0.045,-0.085
'0:02.868',-0.065,-0.085
'0:02.870',-0.075,-0.080
'0:02.872',-0.085,-0.075
'0:02.874',-0.090,-0.075
'0:02.876',-0.090,-0.070
'0:02.878',-0.075,-0.070
'0:02.880',-0.055,-0.075
'0:02.882',-0.030,-0.075
'0:02.884',-0.025,-0.080
'0:02.886',-0.045,-0.085
'0:02.888',-0.065,-0.090
'0:02.890',-0.075,-0.090
'0:02.892',-0.085,-0.090
'0:02.894',-0.090,-0.090
'0:02.896',-0.100,-0.090
'0:02.898',-0.085,-0.085
'0:02.900',-0.070,-0.085
'0:02.902',-0.060,-0.080
'0:02.904',-0.045,-0.080
'0:02.906',-0.040,-0.080
'0:02.908',-0.060,-0.080
'0:02.910',-0.070,-0.080
'0:02.912',-0.075,-0.080
'0:02.914',-0.085,-0.085
'0:02.916',-0.085,-0.085
'0:02.918',-0.070,-0.085
'0:02.920',-0.060,-0.080
'0:02.922',-0.060,-0.080
'0:02.924',-0.055,-0.080
'0:02.926',-0.050,-0.075
'0:02.928',-0.065,-0.075
'0:02.930',-0.075,-0.070
'0:02.932',-0.075,-0.070
'0:02.934',-0.080,-0.065
'0:02.936',-0.070,-0.065
'0:02.938',-0.060,-0.065
'0:02.940',-0.055,-0.065
'0:02.942',-0.055,-0.065
'0:02.944',-0.045,-0.065
'0:02.946',-0.040,-0.070
'0:02.948',-0.065,-0.075
'0:02.950',-0.080,-0.080
'0:02.952',-0.090,-0.080
'0:02.954',-0.070,-0.085
'0:02.956',-0.080,-0.085
'0:02.958',-0.070,-0.085
'0:02.960',-0.050,-0.080
'0:02.962',-0.045,-0.075
'0:02.964',-0.050,-0.075
'0:02.966',-0.045,-0.070
'0:02.968',-0.055,-0.070
'0:02.970',-0.070,-0.070
'0:02.972',-0.075,-0.070
'0:02.974',-0.070,-0.070
'0:02.976',-0.065,-0.070
'0:02.978',-0.060,-0.070
'0:02.980',-0.055,-0.065
'0:02.982',-0.055,-0.065
'0:02.984',-0.040,-0.060
'0:02.986',-0.045,-0.060
'0:02.988',-0.060,-0.055
'0:02.990',-0.055,-0.055
'0:02.992',-0.050,-0.055
'0:02.994',-0.065,-0.055
'0:02.996',-0.055,-0.055
'0:02.998',-0.040,-0.055
'0:03.000',-0.035,-0.055
'0:03.002',-0.015,-0.055
'0:03.004',-0.020,-0.055
'0:03.006',-0.030,-0.050
'0:03.008',-0.035,-0.050
'0:03.010',-0.050,-0.045
'0:03.012',-0.050,-0.045
'0:03.014',-0.050,-0.040
'0:03.016',-0.050,-0.040
'0:03.018',-0.040,-0.035
'0:03.020',-0.020,-0.030
'0:03.022',0.005,-0.025
'0:03.024',0.010,-0.020
'0:03.026',0.015,-0.020
'0:03.028',0.000,-0.015
'0:03.030',0.000,-0.010
'0:03.032',-0.015,-0.005
'0:03.034',-0.020,-0.005
'0:03.036',-0.020,-0.005
'0:03.038',-0.020,-0.005
'0:03.040',-0.005,-0.005
'0:03.042',0.010,-0.005
'0:03.044',0.045,-0.010
'0:03.046',0.025,-0.010
'0:03.048',0.005,-0.010
'0:03.050',0.000,-0.010
'0:03.052',-0.025,-0.010
'0:03.054',-0.045,-0.010
'0:03.056',-0.040,-0.010
'0:03.058',-0.025,-0.010
'0:03.060',-0.025,-0.015
'0:03.062',-0.030,-0.015
'0:03.064',-0.030,-0.020
'0:03.066',-0.050,-0.025
'0:03.068',-0.060,-0.030
'0:03.070',-0.075,-0.040
'0:03.072',-0.085,-0.045
'0:03.074',-0.090,-0.055
'0:03.076',-0.090,-0.060
'0:03.078',-0.070,-0.070
'0:03.080',-0.070,-0.075
'0:03.082',-0.055,-0.075
'0:03.084',-0.045,-0.080
'0:03.086',-0.055,-0.080
'0:03.088',-0.070,-0.075
'0:03.090',-0.080,-0.070
'0:03.092',-0.080,-0.070
'0:03.094',-0.090,-0.065
'0:03.096',-0.090,-0.060
'0:03.098',-0.080,-0.060
'0:03.100',-0.060,-0.055
'0:03.102',-0.060,-0.055
'0:03.104',-0.060,-0.060
'0:03.106',-0.080,-0.060
'0:03.108',-0.080,-0.065
'0:03.110',-0.085,-0.065
'0:03.112',-0.105,-0.070
'0:03.114',-0.110,-0.075
'0:03.116',-0.100,-0.075
'0:03.118',-0.080,-0.080
'0:03.120',-0.075,-0.085
'0:03.122',-0.065,-0.085
'0:03.124',-0.055,-0.085
'0:03.126',-0.070,-0.085
'0:03.128',-0.085,-0.085
'0:03.130',-0.100,-0.085
'0:03.132',-0.110,-0.085
'0:03.134',-0.105,-0.085
'0:03.136',-0.090,-0.085
'0:03.138',-0.085,-0.085
'0:03.140',-0.080,-0.085
'0:03.142',-0.075,-0.085
'0:03.144',-0.050,-0.080
'0:03.146',-0.080,-0.080
'0:03.148',-0.085,-0.075
'0:03.150',-0.090,-0.075
'0:03.152',-0.110,-0.070
'0:03.154',-0.120,-0.070
'0:03.156',-0.105,-0.070
'0:03.158',-0.095,-0.075
'0:03.160',-0.100,-0.080
'0:03.162',-0.100,-0.085
'0:03.164',-0.105,-0.090
'0:03.166',-0.125,-0.095
'0:03.168',-0.130,-0.095
'0:03.170',-0.125,-0.090
'0:03.172',-0.125,-0.080
'0:03.174',-0.090,-0.060
'0:03.176',-0.020,-0.030
'0:03.178',0.045,0.015
'0:03.180',0.095,0.070
'0:03.182',0.155,0.135
'0:03.184',0.235,0.215
'0:03.186',0.275,0.305
'0:03.188',0.360,0.395
'0:03.190',0.460,0.485
'0:03.192',0.590,0.560
'0:03.194',0.670,0.625
'0:03.196',0.675,0.665
'0:03.198',0.675,0.670
'0:03.200',0.620,0.650
'0:03.202',0.575,0.590
'0:03.204',0.465,0.505
'0:03.206',0.380,0.400
'0:03.208',0.270,0.280
'0:03.210',0.135,0.165
'0:03.212',-0.010,0.055
'0:03.214',-0.130,-0.035
'0:03.216',-0.180,-0.100
'0:03.218',-0.185,-0.135
'0:03.220',-0.150,-0.150
'0:03.222',-0.135,-0.150
'0:03.224',-0.110,-0.135
'0:03.226',-0.085,-0.110
'0:03.228',-0.070,-0.090
'0:03.230',-0.070,-0.075
'0:03.232',-0.075,-0.060
'0:03.234',-0.060,-0.050
'0:03.236',-0.050,-0.045
'0:03.238',-0.050,-0.045
'0:03.240',-0.035,-0.040
'0:03.242',-0.030,-0.035
'0:03.244',-0.035,-0.030
'0:03.246',-0.050,-0.025
'0:03.248',-0.060,-0.020
'0:03.250',-0.060,-0.015
'0:03.252',-0.060,-0.015
'0:03.254',-0.065,-0.015
'0:03.256',-0.050,-0.020
'0:03.258',-0.040,-0.020
'0:03.260',-0.030,-0.025
'0:03.262',-0.040,-0.025
'0:03.264',-0.030,-0.025
'0:03.266',-0.045,-0.025
'0:03.268',-0.065,-0.025
'0:03.270',-0.060,-0.025
'0:03.272',-0.065,-0.020
'0:03.274',-0.040,-0.025
'0:03.276',-0.040,-0.025
'0:03.278',-0.020,-0.025
'0:03.280',-0.010,-0.025
'0:03.282',-0.015,-0.020
'0:03.284',-0.015,-0.020
'0:03.286',-0.030,-0.015
'0:03.288',-0.045,-0.015
'0:03.290',-0.040,-0.010
'0:03.292',-0.055,-0.010
'0:03.294',-0.045,-0.005
'0:03.296',-0.030,-0.005
'0:03.298',-0.010,-0.005
'0:03.300',0.005,-0.005
'0:03.302',0.010,-0.010
'0:03.304',0.000,-0.010
'0:03.306',-0.025,-0.010
'0:03.308',-0.030,-0.005
'0:03.310',-0.035,-0.010
'0:03.312',-0.065,-0.010
'0:03.314',-0.040,-0.010
'0:03.316',-0.015,-0.010
'0:03.318',-0.015,-0.010
'0:03.320',-0.005,-0.010
'0:03.322',0.015,-0.010
'0:03.324',0.010,-0.010
'0:03.326',0.005,-0.005
'0:03.328',-0.005,0.000
'0:03.330',-0.010,0.005
'0:03.332',-0.015,0.010
'0:03.334',0.000,0.015
'0:03.336',-0.005,0.015
'0:03.338',0.000,0.020
'0:03.340',0.010,0.020
'0:03.342',0.025,0.025
'0:03.344',0.030,0.025
'0:03.346',0.015,0.030
'0:03.348',0.015,0.035
'0:03.350',0.000,0.040
'0:03.352',0.010,0.050
'0:03.354',0.010,0.055
'0:03.356',0.030,0.060
'0:03.358',0.045,0.060
'0:03.360',0.055,0.065
'0:03.362',0.065,0.065
'0:03.364',0.070,0.065
'0:03.366',0.065,0.065
'0:03.368',0.060,0.065
'0:03.370',0.050,0.070
'0:03.372',0.065,0.075
'0:03.374',0.070,0.085
'0:03.376',0.100,0.090
'0:03.378',0.110,0.095
'0:03.380',0.115,0.105
'0:03.382',0.130,0.110
'0:03.384',0.130,0.115
'0:03.386',0.120,0.120
'0:03.388',0.115,0.125
'0:03.390',0.115,0.130
'0:03.392',0.125,0.135
'0:03.394',0.140,0.145
'0:03.396',0.155,0.150
'0:03.398',0.170,0.160
'0:03.400',0.165,0.165
'0:03.402',0.175,0.175
'0:03.404',0.165,0.180
'0:03.406',0.170,0.185
'0:03.408',0.185,0.185
'0:03.410',0.180,0.190
'0:03.412',0.175,0.195
'0:03.414',0.195,0.195
'0:03.416',0.200,0.200
'0:03.418',0.210,0.205
'0:03.420',0.195,0.210
'0:03.422',0.215,0.210
'0:03.424',0.195,0.215
'0:03.426',0.195,0.220
'0:03.428',0.190,0.225
'0:03.430',0.170,0.225
'0:03.432',0.165,0.225
'0:03.434',0.170,0.220
'0:03.436',0.185,0.215
'0:03.438',0.170,0.205
'0:03.440',0.175,0.195
'0:03.442',0.170,0.180
'0:03.444',0.175,0.170
'0:03.446',0.130,0.155
'0:03.448',0.125,0.145
'0:03.450',0.120,0.140
'0:03.452',0.105,0.135
'0:03.454',0.105,0.135
'0:03.456',0.110,0.135
'0:03.458',0.105,0.135
'0:03.460',0.100,0.130
'0:03.462',0.090,0.125
'0:03.464',0.075,0.115
'0:03.466',0.065,0.100
'0:03.468',0.045,0.080
'0:03.470',0.025,0.065
'0:03.472',0.005,0.045
'0:03.474',0.005,0.030
'0:03.476',-0.005,0.020
'0:03.478',0.005,0.015
'0:03.480',0.005,0.015
'0:03.482',0.000,0.015
'0:03.484',-0.015,0.015
'0:03.486',-0.025,0.015
'0:03.488',-0.030,0.015
'0:03.490',-0.045,0.010
'0:03.492',-0.050,0.000
'0:03.494',-0.050,-0.005
'0:03.496',-0.035,-0.015
'0:03.498',-0.035,-0.025
'0:03.500',-0.020,-0.025
'0:03.502',-0.020,-0.030
'0:03.504',-0.035,-0.030
'0:03.506',-0.040,-0.030
'0:03.508',-0.055,-0.030
'0:03.510',-0.055,-0.030
'0:03.512',-0.045,-0.030
'0:03.514',-0.040,-0.030
'0:03.516',-0.045,-0.035
'0:03.518',-0.050,-0.035
'0:03.520',-0.055,-0.040
'0:03.522',-0.055,-0.045
'0:03.524',-0.075,-0.050
'0:03.526',-0.075,-0.050
'0:03.528',-0.070,-0.050
'0:03.530',-0.075,-0.050
'0:03.532',-0.075,-0.050
'0:03.534',-0.060,-0.050
'0:03.536',-0.055,-0.045
'0:03.538',-0.055,-0.045
'0:03.540',-0.050,-0.045
'0:03.542',-0.045,-0.050
'0:03.544',-0.050,-0.050
'0:03.546',-0.060,-0.055
'0:03.548',-0.065,-0.055
'0:03.550',-0.080,-0.055
'0:03.552',-0.070,-0.055
'0:03.554',-0.060,-0.055
'0:03.556',-0.055,-0.050
'0:03.558',-0.035,-0.050
'0:03.560',-0.020,-0.045
'0:03.562',-0.025,-0.040
'0:03.564',-0.045,-0.035
'0:03.566',-0.070,-0.030
'0:03.568',-0.070,-0.030
'0:03.570',-0.075,-0.035
'0:03.572',-0.055,-0.040
'0:03.574',-0.045,-0.045
'0:03.576',-0.020,-0.050
'0:03.578',-0.035,-0.055
'0:03.580',-0.025,-0.060
'0:03.582',-0.025,-0.060
'0:03.584',-0.040,-0.065
'0:03.586',-0.055,-0.065
'0:03.588',-0.065,-0.065
'0:03.590',-0.070,-0.065
'0:03.592',-0.065,-0.060
'0:03.594',-0.045,-0.055
'0:03.596',-0.040,-0.050
'0:03.598',-0.040,-0.050
'0:03.600',-0.025,-0.045
'0:03.602',-0.010,-0.045
'0:03.604',-0.035,-0.045
'0:03.606',-0.045,-0.045
'0:03.608',-0.050,-0.050
'0:03.610',-0.065,-0.050
'0:03.612',-0.065,-0.055
'0:03.614',-0.050,-0.055
'0:03.616',-0.035,-0.055
'0:03.618',-0.035,-0.055
'0:03.620',-0.020,-0.050
'0:03.622',-0.015,-0.040
'0:03.624',-0.030,-0.030
'0:03.626',-0.035,-0.025
'0:03.628',-0.045,-0.020
'0:03.630',-0.050,-0.015
'0:03.632',-0.050,-0.015
'0:03.634',-0.030,-0.020
'0:03.636',-0.030,-0.025
'0:03.638',-0.030,-0.030
'0:03.640',-0.025,-0.040
'0:03.642',-0.010,-0.045
'0:03.644',-0.040,-0.045
'0:03.646',-0.035,-0.045
'0:03.648',-0.040,-0.045
'0:03.650',-0.050,-0.040
'0:03.652',-0.035,-0.035
'0:03.654',-0.035,-0.030
'0:03.656',-0.015,-0.030
'0:03.658',-0.025,-0.025
'0:03.660',-0.015,-0.025
'0:03.662',-0.015,-0.025
'0:03.664',-0.025,-0.025
'0:03.666',-0.040,-0.030
'0:03.668',-0.040,-0.030
'0:03.670',-0.050,-0.035
'0:03.672',-0.055,-0.035
'0:03.674',-0.040,-0.040
'0:03.676',-0.030,-0.040
'0:03.678',-0.025,-0.045
'0:03.680',-0.025,-0.045
'0:03.682',-0.030,-0.050
'0:03.684',-0.035,-0.050
'0:03.686',-0.060,-0.055
'0:03.688',-0.060,-0.060
'0:03.690',-0.070,-0.060
'0:03.692',-0.060,-0.060
'0:03.694',-0.035,-0.060
'0:03.696',-0.030,-0.055
'0:03.698',-0.010,-0.050
'0:03.700',-0.025,-0.045
'0:03.702',-0.025,-0.040
'0:03.704',-0.040,-0.035
'0:03.706',-0.055,-0.035
'0:03.708',-0.070,-0.035
'0:03.710',-0.075,-0.040
'0:03.712',-0.040,-0.045
'0:03.714',-0.045,-0.055
'0:03.716',-0.040,-0.060
'0:03.718',-0.045,-0.070
'0:03.720',-0.030,-0.070
'0:03.722',-0.035,-0.075
'0:03.724',-0.050,-0.075
'0:03.726',-0.055,-0.070
'0:03.728',-0.065,-0.070
'0:03.730',-0.070,-0.065
'0:03.732',-0.065,-0.065
'0:03.734',-0.060,-0.065
'0:03.736',-0.050,-0.065
'0:03.738',-0.040,-0.070
'0:03.740',-0.030,-0.070
'0:03.742',-0.045,-0.075
'0:03.744',-0.055,-0.075
'0:03.746',-0.050,-0.075
'0:03.748',-0.060,-0.070
'0:03.750',-0.070,-0.070
'0:03.752',-0.045,-0.065
'0:03.754',-0.040,-0.060
'0:03.756',-0.030,-0.055
'0:03.758',-0.025,-0.055
'0:03.760',-0.040,-0.050
'0:03.762',-0.040,-0.050
'0:03.764',-0.055,-0.050
'0:03.766',-0.055,-0.050
'0:03.768',-0.065,-0.050
'0:03.770',-0.065,-0.050
'0:03.772',-0.065,-0.055
'0:03.774',-0.060,-0.055
'0:03.776',-0.025,-0.060
'0:03.778',-0.030,-0.065
'0:03.780',-0.015,-0.070
'0:03.782',-0.040,-0.075
'0:03.784',-0.060,-0.075
'0:03.786',-0.065,-0.080
'0:03.788',-0.070,-0.080
'0:03.790',-0.075,-0.075
'0:03.792',-0.060,-0.070
'0:03.794',-0.050,-0.065
'0:03.796',-0.025,-0.060
'0:03.798',-0.025,-0.055
'0:03.800',-0.025,-0.055
'0:03.802',-0.030,-0.055
'0:03.804',-0.045,-0.060
'0:03.806',-0.055,-0.065
'0:03.808',-0.060,-0.065
'0:03.810',-0.080,-0.070
'0:03.812',-0.075,-0.075
'0:03.814',-0.070,-0.080
'0:03.816',-0.060,-0.085
'0:03.818',-0.035,-0.085
'0:03.820',-0.035,-0.090
'0:03.822',-0.055,-0.090
'0:03.824',-0.055,-0.090
'0:03.826',-0.065,-0.090
'0:03.828',-0.075,-0.090
'0:03.830',-0.075,-0.090
'0:03.832',-0.065,-0.085
'0:03.834',-0.045,-0.085
'0:03.836',-0.035,-0.080
'0:03.838',-0.025,-0.080
'0:03.840',-0.035,-0.075
'0:03.842',-0.035,-0.070
'0:03.844',-0.040,-0.070
'0:03.846',-0.045,-0.065
'0:03.848',-0.060,-0.065
'0:03.850',-0.060,-0.065
'0:03.852',-0.040,-0.065
'0:03.854',-0.035,-0.065
'0:03.856',-0.030,-0.070
'0:03.858',-0.020,-0.070
'0:03.860',-0.015,-0.075
'0:03.862',-0.030,-0.075
'0:03.864',-0.035,-0.075
'0:03.866',-0.040,-0.070
'0:03.868',-0.050,-0.070
'0:03.870',-0.045,-0.065
'0:03.872',-0.050,-0.060
'0:03.874',-0.025,-0.055
'0:03.876',0.005,-0.045
'0:03.878',0.010,-0.040
'0:03.880',0.020,-0.035
'0:03.882',0.030,-0.035
'0:03.884',0.035,-0.030
'0:03.886',0.030,-0.025
'0:03.888',0.035,-0.020
'0:03.890',0.025,-0.015
'0:03.892',0.040,-0.010
'0:03.894',0.045,0.000
'0:03.896',0.055,0.005
'0:03.898',0.065,0.010
'0:03.900',0.075,0.015
'0:03.902',0.065,0.020
'0:03.904',0.055,0.020
'0:03.906',0.045,0.025
'0:03.908',0.040,0.025
'0:03.910',0.055,0.030
'0:03.912',0.065,0.030
'0:03.914',0.090,0.035
'0:03.916',0.105,0.040
'0:03.918',0.125,0.045
'0:03.920',0.130,0.045
'0:03.922',0.095,0.050
'0:03.924',0.090,0.055
'0:03.926',0.100,0.060
'0:03.928',0.090,0.060
'0:03.930',0.095,0.060
'0:03.932',0.100,0.060
'0:03.934',0.110,0.060
'0:03.936',0.125,0.060
'0:03.938',0.135,0.060
'0:03.940',0.145,0.065
'0:03.942',0.145,0.065
'0:03.944',0.130,0.070
'0:03.946',0.135,0.075
'0:03.948',0.120,0.080
'0:03.950',0.125,0.085
'0:03.952',0.125,0.090
'0:03.954',0.135,0.090
'0:03.956',0.145,0.095
'0:03.958',0.155,0.100
'0:03.960',0.170,0.105
'0:03.962',0.160,0.110
'0:03.964',0.165,0.110
'0:03.966',0.165,0.115
'0:03.968',0.155,0.115
'0:03.970',0.155,0.115
'0:03.972',0.160,0.115
'0:03.974',0.155,0.115
'0:03.976',0.165,0.115
'0:03.978',0.180,0.110
'0:03.980',0.165,0.105
'0:03.982',0.160,0.100
'0:03.984',0.160,0.100
'0:03.986',0.160,0.100
'0:03.988',0.140,0.095
'0:03.990',0.130,0.095
'0:03.992',0.140,0.095
'0:03.994',0.140,0.095
'0:03.996',0.135,0.095
'0:03.998',0.135,0.095
'0:04.000',0.130,0.090
'0:04.002',0.110,0.085
'0:04.004',0.110,0.085
'0:04.006',0.095,0.080
'0:04.008',0.090,0.075
'0:04.010',0.095,0.075
'0:04.012',0.105,0.075
'0:04.014',0.120,0.070
'0:04.016',0.125,0.070
'0:04.018',0.120,0.065
'0:04.020',0.110,0.060
'0:04.022',0.105,0.055
'0:04.024',0.090,0.050
'0:04.026',0.085,0.045
'0:04.028',0.070,0.040
'0:04.030',0.085,0.040
'0:04.032',0.105,0.035
'0:04.034',0.100,0.035
'0:04.036',0.105,0.040
'0:04.038',0.100,0.040
'0:04.040',0.095,0.035
'0:04.042',0.080,0.035
'0:04.044',0.070,0.030
'0:04.046',0.075,0.025
'0:04.048',0.055,0.020
'0:04.050',0.070,0.015
'0:04.052',0.070,0.010
'0:04.054',0.080,0.010
'0:04.056',0.085,0.010
'0:04.058',0.100,0.015
'0:04.060',0.085,0.020
'0:04.062',0.065,0.025
'0:04.064',0.060,0.030
'0:04.066',0.050,0.035
'0:04.068',0.050,0.040
'0:04.070',0.055,0.040
'0:04.072',0.070,0.040
'0:04.074',0.080,0.035
'0:04.076',0.085,0.030
'0:04.078',0.085,0.025
'0:04.080',0.070,0.020
'0:04.082',0.065,0.015
'0:04.084',0.065,0.015
'0:04.086',0.045,0.015
'0:04.088',0.065,0.015
'0:04.090',0.065,0.015
'0:04.092',0.065,0.015
'0:04.094',0.070,0.015
'0:04.096',0.060,0.010
'0:04.098',0.070,0.005
'0:04.100',0.060,-0.005
'0:04.102',0.035,-0.010
'0:04.104',0.030,-0.015
'0:04.106',0.040,-0.015
'0:04.108',0.055,-0.005
'0:04.110',0.085,0.015
'0:04.112',0.130,0.045
'0:04.114',0.185,0.090
'0:04.116',0.235,0.145
'0:04.118',0.290,0.210
'0:04.120',0.330,0.285
'0:04.122',0.395,0.365
'0:04.124',0.500,0.445
'0:04.126',0.605,0.520
'0:04.128',0.705,0.585
'0:04.130',0.755,0.630
'0:04.132',0.755,0.655
'0:04.134',0.740,0.655
'0:04.136',0.695,0.630
'0:04.138',0.615,0.570
'0:04.140',0.515,0.490
'0:04.142',0.430,0.390
'0:04.144',0.325,0.280
'0:04.146',0.190,0.165
'0:04.148',0.070,0.065
'0:04.150',-0.015,-0.015
'0:04.152',-0.045,-0.075
'0:04.154',-0.040,-0.105
'0:04.156',-0.020,-0.115
'0:04.158',0.015,-0.100
'0:04.160',0.025,-0.080
'0:04.162',0.025,-0.050
'0:04.164',0.040,-0.020
'0:04.166',0.060,0.005
'0:04.168',0.085,0.020
'0:04.170',0.090,0.030
'0:04.172',0.100,0.030
'0:04.174',0.120,0.030
'0:04.176',0.110,0.030
'0:04.178',0.090,0.030
'0:04.180',0.075,0.030
'0:04.182',0.070,0.035
'0:04.184',0.065,0.040
'0:04.186',0.070,0.040
'0:04.188',0.070,0.040
'0:04.190',0.085,0.040
'0:04.192',0.090,0.035
'0:04.194',0.105,0.030
'0:04.196',0.105,0.025
'0:04.198',0.110,0.020
'0:04.200',0.095,0.015
'0:04.202',0.095,0.015
'0:04.204',0.085,0.015
'0:04.206',0.085,0.015
'0:04.208',0.085,0.020
'0:04.210',0.100,0.020
'0:04.212',0.110,0.025
'0:04.214',0.120,0.025
'0:04.216',0.130,0.025
'0:04.218',0.110,0.030
'0:04.220',0.090,0.030
'0:04.222',0.075,0.025
'0:04.224',0.070,0.025
'0:04.226',0.070,0.025
'0:04.228',0.075,0.025
'0:04.230',0.095,0.025
'0:04.232',0.115,0.025
'0:04.234',0.125,0.025
'0:04.236',0.130,0.030
'0:04.238',0.125,0.030
'0:04.240',0.115,0.030
'0:04.242',0.105,0.030
'0:04.244',0.100,0.030
'0:04.246',0.105,0.030
'0:04.248',0.110,0.030
'0:04.250',0.120,0.030
'0:04.252',0.125,0.030
'0:04.254',0.125,0.035
'0:04.256',0.130,0.035
'0:04.258',0.130,0.040
'0:04.260',0.105,0.045
'0:04.262',0.105,0.050
'0:04.264',0.120,0.055
'0:04.266',0.105,0.060
'0:04.268',0.110,0.065
'0:04.270',0.120,0.065
'0:04.272',0.130,0.070
'0:04.274',0.145,0.065
'0:04.276',0.165,0.065
'0:04.278',0.150,0.060
'0:04.280',0.140,0.055
'0:04.282',0.130,0.050
'0:04.284',0.125,0.050
'0:04.286',0.130,0.050
'0:04.288',0.130,0.050
'0:04.290',0.140,0.055
'0:04.292',0.140,0.055
'0:04.294',0.145,0.060
'0:04.296',0.165,0.065
'0:04.298',0.170,0.070
'0:04.300',0.160,0.075
'0:04.302',0.160,0.080
'0:04.304',0.165,0.085
'0:04.306',0.160,0.095
'0:04.308',0.185,0.100
'0:04.310',0.180,0.110
'0:04.312',0.195,0.120
'0:04.314',0.200,0.125
'0:04.316',0.210,0.130
'0:04.318',0.205,0.135
'0:04.320',0.200,0.140
'0:04.322',0.200,0.140
'0:04.324',0.200,0.140
'0:04.326',0.200,0.145
'0:04.328',0.215,0.145
'0:04.330',0.225,0.150
'0:04.332',0.250,0.155
'0:04.334',0.260,0.165
'0:04.336',0.270,0.170
'0:04.338',0.255,0.180
'0:04.340',0.255,0.185
'0:04.342',0.260,0.190
'0:04.344',0.260,0.190
'0:04.346',0.245,0.190
'0:04.348',0.260,0.190
'0:04.350',0.270,0.190
'0:04.352',0.265,0.185
'0:04.354',0.270,0.185
'0:04.356',0.255,0.185
'0:04.358',0.265,0.185
'0:04.360',0.260,0.190
'0:04.362',0.245,0.195
'0:04.364',0.240,0.195
'0:04.366',0.235,0.195
'0:04.368',0.240,0.195
'0:04.370',0.255,0.190
'0:04.372',0.235,0.190
'0:04.374',0.240,0.180
'0:04.376',0.240,0.175
'0:04.378',0.220,0.165
'0:04.380',0.200,0.155
'0:04.382',0.180,0.145
'0:04.384',0.165,0.135
'0:04.386',0.150,0.125
'0:04.388',0.155,0.110
'0:04.390',0.155,0.100
'0:04.392',0.150,0.090
'0:04.394',0.135,0.075
'0:04.396',0.120,0.060
'0:04.398',0.090,0.050
'0:04.400',0.085,0.040
'0:04.402',0.070,0.030
'0:04.404',0.050,0.020
'0:04.406',0.040,0.010
'0:04.408',0.045,0.005
'0:04.410',0.045,0.000
'0:04.412',0.040,-0.010
'0:04.414',0.050,-0.015
'0:04.416',0.045,-0.020
'0:04.418',0.030,-0.025
'0:04.420',0.010,-0.030
'0:04.422',-0.005,-0.040
'0:04.424',-0.015,-0.045
'0:04.426',-0.025,-0.050
'0:04.428',-0.015,-0.055
'0:04.430',-0.010,-0.055
'0:04.432',0.000,-0.060
'0:04.434',0.005,-0.060
'0:04.436',0.005,-0.065
'0:04.438',-0.020,-0.065
'0:04.440',-0.030,-0.070
'0:04.442',-0.045,-0.080
'0:04.444',-0.060,-0.085
'0:04.446',-0.040,-0.095
'0:04.448',-0.040,-0.100
'0:04.450',-0.020,-0.105
'0:04.452',-0.015,-0.110
'0:04.454',-0.015,-0.110
'0:04.456',-0.010,-0.110
'0:04.458',-0.020,-0.110
'0:04.460',-0.050,-0.105
'0:04.462',-0.055,-0.105
'0:04.464',-0.075,-0.100
'0:04.466',-0.060,-0.100
'0:04.468',-0.055,-0.100
'0:04.470',-0.035,-0.100
'0:04.472',-0.030,-0.105
'0:04.474',-0.030,-0.105
'0:04.476',-0.025,-0.105
'0:04.478',-0.040,-0.105
'0:04.480',-0.060,-0.105
'0:04.482',-0.055,-0.105
'0:04.484',-0.055,-0.105
'0:04.486',-0.065,-0.105
'0:04.488',-0.060,-0.110
'0:04.490',-0.050,-0.110
'0:04.492',-0.030,-0.115
'0:04.494',-0.020,-0.115
'0:04.496',-0.020,-0.115
'0:04.498',-0.030,-0.120
'0:04.500',-0.040,-0.120
'0:04.502',-0.050,-0.115
'0:04.504',-0.065,-0.115
'0:04.506',-0.070,-0.110
'0:04.508',-0.055,-0.110
'0:04.510',-0.035,-0.105
'0:04.512',-0.025,-0.105
'0:04.514',-0.020,-0.105
'0:04.516',-0.015,-0.105
'0:04.518',-0.030,-0.105
'0:04.520',-0.045,-0.105
'0:04.522',-0.045,-0.110
'0:04.524',-0.050,-0.110
'0:04.526',-0.040,-0.110
'0:04.528',-0.025,-0.110
'0:04.530',-0.015,-0.105
'0:04.532',-0.015,-0.105
'0:04.534',0.000,-0.100
'0:04.536',-0.010,-0.095
'0:04.538',-0.035,-0.095
'0:04.540',-0.055,-0.090
'0:04.542',-0.040,-0.090
'0:04.544',-0.065,-0.090
'0:04.546',-0.040,-0.095
'0:04.548',-0.050,-0.100
'0:04.550',-0.035,-0.100
'0:04.552',-0.010,-0.105
'0:04.554',0.005,-0.105
'0:04.556',-0.020,-0.105
'0:04.558',-0.040,-0.105
'0:04.560',-0.040,-0.100
'0:04.562',-0.040,-0.090
'0:04.564',-0.065,-0.085
'0:04.566',-0.045,-0.080
'0:04.568',-0.035,-0.075
'0:04.570',-0.025,-0.070
'0:04.572',-0.025,-0.070
'0:04.574',-0.010,-0.075
'0:04.576',-0.015,-0.080
'0:04.578',-0.035,-0.085
'0:04.580',-0.035,-0.090
'0:04.582',-0.045,-0.095
'0:04.584',-0.050,-0.095
'0:04.586',-0.050,-0.095
'0:04.588',-0.040,-0.090
'0:04.590',-0.040,-0.090
'0:04.592',-0.045,-0.085
'0:04.594',-0.025,-0.085
'0:04.596',-0.040,-0.085
'0:04.598',-0.045,-0.085
'0:04.600',-0.055,-0.085
'0:04.602',-0.070,-0.090
'0:04.604',-0.070,-0.090
'0:04.606',-0.060,-0.090
'0:04.608',-0.045,-0.090
'0:04.610',-0.035,-0.090
'0:04.612',-0.030,-0.085
'0:04.614',-0.025,-0.080
'0:04.616',-0.025,-0.080
'0:04.618',-0.035,-0.080
'0:04.620',-0.050,-0.080
'0:04.622',-0.075,-0.085
'0:04.624',-0.100,-0.090
'0:04.626',-0.070,-0.095
'0:04.628',-0.050,-0.100
'0:04.630',-0.050,-0.100
'0:04.632',-0.040,-0.105
'0:04.634',-0.035,-0.105
'0:04.636',-0.040,-0.110
'0:04.638',-0.050,-0.105
'0:04.640',-0.060,-0.105
'0:04.642',-0.075,-0.105
'0:04.644',-0.070,-0.105
'0:04.646',-0.050,-0.100
'0:04.648',-0.050,-0.100
'0:04.650',-0.050,-0.095
'0:04.652',-0.040,-0.095
'0:04.654',-0.035,-0.095
'0:04.656',-0.045,-0.095
'0:04.658',-0.060,-0.095
'0:04.660',-0.070,-0.100
'0:04.662',-0.075,-0.100
'0:04.664',-0.080,-0.105
'0:04.666',-0.075,-0.105
'0:04.668',-0.040,-0.105
'0:04.670',-0.045,-0.110
'0:04.672',-0.040,-0.110
'0:04.674',-0.035,-0.110
'0:04.676',-0.055,-0.110
'0:04.678',-0.055,-0.110
'0:04.680',-0.065,-0.115
'0:04.682',-0.075,-0.115
'0:04.684',-0.075,-0.115
'0:04.686',-0.060,-0.120
'0:04.688',-0.065,-0.120
'0:04.690',-0.060,-0.120
'0:04.692',-0.055,-0.115
'0:04.694',-0.045,-0.110
'0:04.696',-0.045,-0.105
'0:04.698',-0.060,-0.100
'0:04.700',-0.080,-0.095
'0:04.702',-0.070,-0.090
'0:04.704',-0.075,-0.090
'0:04.706',-0.060,-0.090
'0:04.708',-0.055,-0.090
'0:04.710',-0.065,-0.095
'0:04.712',-0.045,-0.100
'0:04.714',-0.045,-0.105
'0:04.716',-0.050,-0.105
'0:04.718',-0.065,-0.110
'0:04.720',-0.065,-0.110
'0:04.722',-0.075,-0.105
'0:04.724',-0.080,-0.105
'0:04.726',-0.065,-0.100
'0:04.728',-0.055,-0.095
'0:04.730',-0.050,-0.095
'0:04.732',-0.050,-0.090
'0:04.734',-0.040,-0.090
'0:04.736',-0.060,-0.090
'0:04.738',-0.065,-0.095
'0:04.740',-0.075,-0.095
'0:04.742',-0.085,-0.100
'0:04.744',-0.080,-0.105
'0:04.746',-0.065,-0.110
'0:04.748',-0.060,-0.110
'0:04.750',-0.055,-0.115
'0:04.752',-0.050,-0.110
'0:04.754',-0.035,-0.110
'0:04.756',-0.065,-0.105
'0:04.758',-0.070,-0.100
'0:04.760',-0.055,-0.095
'0:04.762',-0.085,-0.090
'0:04.764',-0.070,-0.085
'0:04.766',-0.065,-0.085
'0:04.768',-0.045,-0.090
'0:04.770',-0.060,-0.095
'0:04.772',-0.050,-0.105
'0:04.774',-0.045,-0.110
'0:04.776',-0.070,-0.115
'0:04.778',-0.080,-0.120
'0:04.780',-0.075,-0.125
'0:04.782',-0.085,-0.120
'0:04.784',-0.090,-0.115
'0:04.786',-0.070,-0.110
'0:04.788',-0.050,-0.105
'0:04.790',-0.055,-0.095
'0:04.792',-0.045,-0.090
'0:04.794',-0.040,-0.085
'0:04.796',-0.050,-0.085
'0:04.798',-0.075,-0.085
'0:04.800',-0.075,-0.085
'0:04.802',-0.090,-0.090
'0:04.804',-0.090,-0.090
'0:04.806',-0.075,-0.095
'0:04.808',-0.070,-0.095
'0:04.810',-0.060,-0.095
'0:04.812',-0.045,-0.095
'0:04.814',-0.050,-0.095
'0:04.816',-0.065,-0.095
'0:04.818',-0.080,-0.090
'0:04.820',-0.075,-0.090
'0:04.822',-0.075,-0.090
'0:04.824',-0.065,-0.090
'0:04.826',-0.065,-0.090
'0:04.828',-0.065,-0.090
'0:04.830',-0.065,-0.090
'0:04.832',-0.050,-0.095
'0:04.834',-0.065,-0.095
'0:04.836',-0.075,-0.095
'0:04.838',-0.075,-0.100
'0:04.840',-0.075,-0.100
'0:04.842',-0.085,-0.100
'0:04.844',-0.075,-0.100
'0:04.846',-0.060,-0.095
'0:04.848',-0.040,-0.090
'0:04.850',-0.040,-0.085
'0:04.852',-0.030,-0.080
'0:04.854',-0.030,-0.075
'0:04.856',-0.045,-0.065
'0:04.858',-0.055,-0.060
'0:04.860',-0.055,-0.060
'0:04.862',-0.050,-0.055
'0:04.864',-0.045,-0.055
'0:04.866',-0.040,-0.055
'0:04.868',-0.035,-0.055
'0:04.870',-0.015,-0.055
'0:04.872',0.000,-0.055
'0:04.874',-0.005,-0.050
'0:04.876',-0.015,-0.050
'0:04.878',-0.020,-0.050
'0:04.880',-0.020,-0.045
'0:04.882',-0.015,-0.040
'0:04.884',0.000,-0.035
'0:04.886',-0.010,-0.035
'0:04.888',0.005,-0.030
'0:04.890',0.010,-0.025
'0:04.892',0.010,-0.025
'0:04.894',-0.005,-0.025
'0:04.896',-0.010,-0.025
'0:04.898',-0.015,-0.025
'0:04.900',-0.015,-0.030
'0:04.902',-0.025,-0.030
'0:04.904',-0.020,-0.035
'0:04.906',-0.010,-0.040
'0:04.908',0.010,-0.040
'0:04.910',0.000,-0.045
'0:04.912',-0.005,-0.045
'0:04.914',-0.030,-0.050
'0:04.916',-0.045,-0.050
'0:04.918',-0.060,-0.055
'0:04.920',-0.065,-0.060
'0:04.922',-0.080,-0.060
'0:04.924',-0.080,-0.065
'0:04.926',-0.070,-0.070
'0:04.928',-0.065,-0.070
'0:04.930',-0.050,-0.075
'0:04.932',-0.045,-0.075
'0:04.934',-0.060,-0.075
'0:04.936',-0.065,-0.075
'0:04.938',-0.075,-0.080
'0:04.940',-0.090,-0.080
'0:04.942',-0.105,-0.080
'0:04.944',-0.085,-0.080
'0:04.946',-0.065,-0.085
'0:04.948',-0.065,-0.090
'0:04.950',-0.070,-0.090
'0:04.952',-0.055,-0.095
'0:04.954',-0.060,-0.100
'0:04.956',-0.075,-0.100
'0:04.958',-0.095,-0.105
'0:04.960',-0.105,-0.105
'0:04.962',-0.120,-0.105
'0:04.964',-0.110,-0.105
'0:04.966',-0.075,-0.105
'0:04.968',-0.080,-0.105
'0:04.970',-0.070,-0.105
'0:04.972',-0.060,-0.100
'0:04.974',-0.080,-0.100
'0:04.976',-0.095,-0.100
'0:04.978',-0.110,-0.100
'0:04.980',-0.100,-0.100
'0:04.982',-0.090,-0.095
'0:04.984',-0.095,-0.095
'0:04.986',-0.085,-0.090
'0:04.988',-0.075,-0.085
'0:04.990',-0.075,-0.085
'0:04.992',-0.065,-0.085
'0:04.994',-0.080,-0.085
'0:04.996',-0.100,-0.085
'0:04.998',-0.100,-0.085
'0:05.000',-0.100,-0.090
'0:05.002',-0.100,-0.095
'0:05.004',-0.090,-0.095
'0:05.006',-0.090,-0.100
'0:05.008',-0.080,-0.100
'0:05.010',-0.095,-0.105
'0:05.012',-0.090,-0.105
'0:05.014',-0.100,-0.110
'0:05.016',-0.105,-0.115
'0:05.018',-0.125,-0.115
'0:05.020',-0.145,-0.120
'0:05.022',-0.145,-0.115
'0:05.024',-0.115,-0.110
'0:05.026',-0.075,-0.090
'0:05.028',-0.020,-0.065
'0:05.030',0.035,-0.020
'0:05.032',0.090,0.030
'0:05.034',0.120,0.100
'0:05.036',0.180,0.175
'0:05.038',0.245,0.260
'0:05.040',0.325,0.350
'0:05.042',0.425,0.435
'0:05.044',0.555,0.510
'0:05.046',0.640,0.570
'0:05.048',0.650,0.605
'0:05.050',0.645,0.610
'0:05.052',0.595,0.590
'0:05.054',0.520,0.540
'0:05.056',0.425,0.465
'0:05.058',0.335,0.365
'0:05.060',0.245,0.260
'0:05.062',0.130,0.150
'0:05.064',0.020,0.045
'0:05.066',-0.090,-0.040
'0:05.068',-0.165,-0.105
'0:05.070',-0.170,-0.145
'0:05.072',-0.145,-0.165
'0:05.074',-0.125,-0.165
'0:05.076',-0.125,-0.150
'0:05.078',-0.115,-0.135
'0:05.080',-0.105,-0.115
'0:05.082',-0.095,-0.095
'0:05.084',-0.070,-0.085
'0:05.086',-0.060,-0.075
'0:05.088',-0.040,-0.075
'0:05.090',-0.040,-0.075
'0:05.092',-0.035,-0.075
'0:05.094',-0.055,-0.070
'0:05.096',-0.070,-0.070
'0:05.098',-0.085,-0.065
'0:05.100',-0.085,-0.060
'0:05.102',-0.080,-0.055
'0:05.104',-0.065,-0.050
'0:05.106',-0.050,-0.050
'0:05.108',-0.035,-0.050
'0:05.110',-0.025,-0.050
'0:05.112',-0.025,-0.050
'0:05.114',-0.030,-0.050
'0:05.116',-0.025,-0.050
'0:05.118',-0.060,-0.045
'0:05.120',-0.075,-0.045
'0:05.122',-0.070,-0.045
'0:05.124',-0.060,-0.045
'0:05.126',-0.050,-0.045
'0:05.128',-0.050,-0.045
'0:05.130',-0.030,-0.045
'0:05.132',-0.030,-0.045
'0:05.134',-0.040,-0.040
'0:05.136',-0.050,-0.040
'0:05.138',-0.050,-0.035
'0:05.140',-0.060,-0.035
'0:05.142',-0.050,-0.030
'0:05.144',-0.045,-0.030
'0:05.146',-0.030,-0.030
'0:05.148',-0.015,-0.030
'0:05.150',-0.010,-0.030
'0:05.152',-0.030,-0.030
'0:05.154',-0.035,-0.030
'0:05.156',-0.035,-0.030
'0:05.158',-0.040,-0.030
'0:05.160',-0.040,-0.025
'0:05.162',-0.030,-0.020
'0:05.164',-0.015,-0.015
'0:05.166',-0.010,-0.010
'0:05.168',-0.005,-0.005
'0:05.170',0.010,-0.005
'0:05.172',0.005,0.000
'0:05.174',-0.020,0.000
'0:05.176',-0.030,0.000
'0:05.178',-0.040,0.000
'0:05.180',-0.045,0.000
'0:05.182',-0.045,0.000
'0:05.184',-0.020,0.000
'0:05.186',-0.010,0.000
'0:05.188',0.005,0.005
'0:05.190',0.020,0.005
'0:05.192',0.015,0.010
'0:05.194',0.000,0.015
'0:05.196',-0.005,0.015
'0:05.198',-0.015,0.020
'0:05.200',-0.010,0.020
'0:05.202',0.005,0.020
'0:05.204',0.015,0.025
'0:05.206',0.020,0.025
'0:05.208',0.030,0.025
'0:05.210',0.050,0.025
'0:05.212',0.035,0.030
'0:05.214',0.020,0.035
'0:05.216',0.025,0.040
'0:05.218',0.030,0.045
'0:05.220',0.030,0.050
'0:05.222',0.050,0.055
'0:05.224',0.060,0.060
'0:05.226',0.080,0.065
'0:05.228',0.085,0.070
'0:05.230',0.110,0.075
'0:05.232',0.100,0.080
'0:05.234',0.080,0.085
'0:05.236',0.075,0.090
'0:05.238',0.070,0.095
'0:05.240',0.080,0.100
'0:05.242',0.095,0.105
'0:05.244',0.115,0.115
'0:05.246',0.125,0.120
'0:05.248',0.150,0.130
'0:05.250',0.160,0.135
'0:05.252',0.160,0.145
'0:05.254',0.160,0.150
'0:05.256',0.145,0.160
'0:05.258',0.145,0.165
'0:05.260',0.135,0.170
'0:05.262',0.160,0.175
'0:05.264',0.175,0.175
'0:05.266',0.185,0.180
'0:05.268',0.190,0.185
'0:05.270',0.195,0.185
'0:05.272',0.190,0.185
'0:05.274',0.185,0.185
'0:05.276',0.175,0.185
'0:05.278',0.170,0.185
'0:05.280',0.165,0.185
'0:05.282',0.180,0.185
'0:05.284',0.175,0.185
'0:05.286',0.175,0.185
'0:05.288',0.170,0.185
'0:05.290',0.175,0.180
'0:05.292',0.155,0.180
'0:05.294',0.145,0.180
'0:05.296',0.130,0.175
'0:05.298',0.115,0.170
'0:05.300',0.105,0.165
'0:05.302',0.110,0.155
'0:05.304',0.115,0.145
'0:05.306',0.110,0.135
'0:05.308',0.110,0.125
'0:05.310',0.105,0.115
'0:05.312',0.080,0.105
'0:05.314',0.065,0.100
'0:05.316',0.045,0.090
'0:05.318',0.015,0.080
'0:05.320',0.010,0.070
'0:05.322',0.015,0.060
'0:05.324',0.015,0.050
'0:05.326',0.015,0.035
'0:05.328',0.000,0.025
'0:05.330',0.015,0.015
'0:05.332',0.015,0.005
'0:05.334',-0.020,0.000
'0:05.336',-0.035,-0.005
'0:05.338',-0.045,-0.005
'0:05.340',-0.040,-0.005
'0:05.342',-0.040,-0.005
'0:05.344',-0.035,-0.005
'0:05.346',-0.040,-0.005
'0:05.348',-0.025,-0.010
'0:05.350',-0.020,-0.015
'0:05.352',-0.045,-0.015
'0:05.354',-0.050,-0.020
'0:05.356',-0.065,-0.025
'0:05.358',-0.070,-0.030
'0:05.360',-0.065,-0.035
'0:05.362',-0.045,-0.035
'0:05.364',-0.045,-0.035
'0:05.366',-0.055,-0.035
'0:05.368',-0.045,-0.030
'0:05.370',-0.045,-0.030
'0:05.372',-0.055,-0.025
'0:05.374',-0.070,-0.025
'0:05.376',-0.080,-0.025
'0:05.378',-0.085,-0.025
'0:05.380',-0.085,-0.030
'0:05.382',-0.085,-0.035
'0:05.384',-0.060,-0.040
'0:05.386',-0.065,-0.045
'0:05.388',-0.045,-0.050
'0:05.390',-0.050,-0.055
'0:05.392',-0.060,-0.060
'0:05.394',-0.075,-0.065
'0:05.396',-0.090,-0.065
'0:05.398',-0.085,-0.060
'0:05.400',-0.070,-0.060
'0:05.402',-0.065,-0.055
'0:05.404',-0.060,-0.050
'0:05.406',-0.040,-0.050
'0:05.408',-0.045,-0.045
'0:05.410',-0.050,-0.040
'0:05.412',-0.055,-0.040
'0:05.414',-0.060,-0.035
'0:05.416',-0.070,-0.035
'0:05.418',-0.080,-0.030
'0:05.420',-0.075,-0.030
'0:05.422',-0.060,-0.030
'0:05.424',-0.065,-0.030
'0:05.426',-0.050,-0.030
'0:05.428',-0.030,-0.035
'0:05.430',-0.040,-0.035
'0:05.432',-0.055,-0.040
'0:05.434',-0.055,-0.040
'0:05.436',-0.055,-0.040
'0:05.438',-0.060,-0.040
'0:05.440',-0.060,-0.035
'0:05.442',-0.045,-0.035
'0:05.444',-0.025,-0.030
'0:05.446',-0.020,-0.025
'0:05.448',-0.010,-0.020
'0:05.450',-0.025,-0.015
'0:05.452',-0.055,-0.015
'0:05.454',-0.060,-0.015
'0:05.456',-0.065,-0.010
'0:05.458',-0.065,-0.010
'0:05.460',-0.055,-0.010
'0:05.462',-0.045,-0.010
'0:05.464',-0.035,-0.010
'0:05.466',-0.025,-0.010
'0:05.468',-0.025,-0.010
'0:05.470',-0.035,-0.010
'0:05.472',-0.050,-0.010
'0:05.474',-0.045,-0.015
'0:05.476',-0.050,-0.020
'0:05.478',-0.055,-0.020
'0:05.480',-0.050,-0.025
'0:05.482',-0.040,-0.025
'0:05.484',-0.025,-0.030
'0:05.486',-0.020,-0.030
'0:05.488',-0.015,-0.025
'0:05.490',-0.020,-0.025
'0:05.492',-0.035,-0.025
'0:05.494',-0.035,-0.025
'0:05.496',-0.045,-0.025
'0:05.498',-0.055,-0.025
'0:05.500',-0.045,-0.025
'0:05.502',-0.035,-0.030
'0:05.504',-0.035,-0.030
'0:05.506',-0.030,-0.035
'0:05.508',-0.025,-0.035
'0:05.510',-0.030,-0.035
'0:05.512',-0.045,-0.035
'0:05.514',-0.040,-0.035
'0:05.516',-0.050,-0.030
'0:05.518',-0.055,-0.025
'0:05.520',-0.060,-0.020
'0:05.522',-0.040,-0.020
'0:05.524',-0.030,-0.015
'0:05.526',-0.030,-0.015
'0:05.528',-0.030,-0.015
'0:05.530',-0.050,-0.015
'0:05.532',-0.055,-0.015
'0:05.534',-0.060,-0.015
'0:05.536',-0.060,-0.020
'0:05.538',-0.070,-0.020
'0:05.540',-0.060,-0.025
'0:05.542',-0.050,-0.025
'0:05.544',-0.045,-0.030
'0:05.546',-0.040,-0.030
'0:05.548',-0.030,-0.030
'0:05.550',-0.040,-0.035
'0:05.552',-0.060,-0.035
'0:05.554',-0.060,-0.040
'0:05.556',-0.065,-0.040
'0:05.558',-0.070,-0.040
'0:05.560',-0.065,-0.040
'0:05.562',-0.055,-0.040
'0:05.564',-0.045,-0.040
'0:05.566',-0.045,-0.040
'0:05.568',-0.045,-0.035
'0:05.570',-0.055,-0.035
'0:05.572',-0.050,-0.030
'0:05.574',-0.055,-0.030
'0:05.576',-0.070,-0.030
'0:05.578',-0.070,-0.030
'0:05.580',-0.065,-0.030
'0:05.582',-0.060,-0.035
'0:05.584',-0.045,-0.040
'0:05.586',-0.040,-0.040
'0:05.588',-0.050,-0.045
'0:05.590',-0.055,-0.045
'0:05.592',-0.050,-0.045
'0:05.594',-0.060,-0.040
'0:05.596',-0.070,-0.040
'0:05.598',-0.070,-0.035
'0:05.600',-0.060,-0.035
'0:05.602',-0.055,-0.035
'0:05.604',-0.055,-0.040
'0:05.606',-0.045,-0.045
'0:05.608',-0.055,-0.055
'0:05.610',-0.065,-0.060
'0:05.612',-0.070,-0.065
'0:05.614',-0.065,-0.065
'0:05.616',-0.075,-0.065
'0:05.618',-0.085,-0.065
'0:05.620',-0.070,-0.060
'0:05.622',-0.060,-0.055
'0:05.624',-0.050,-0.050
'0:05.626',-0.050,-0.045
'0:05.628',-0.045,-0.045
'0:05.630',-0.055,-0.045
'0:05.632',-0.065,-0.045
'0:05.634',-0.055,-0.045
'0:05.636',-0.065,-0.045
'0:05.638',-0.070,-0.050
'0:05.640',-0.055,-0.050
'0:05.642',-0.055,-0.050
'0:05.644',-0.060,-0.050
'0:05.646',-0.040,-0.050
'0:05.648',-0.030,-0.050
'0:05.650',-0.050,-0.050
'0:05.652',-0.065,-0.050
'0:05.654',-0.085,-0.050
'0:05.656',-0.065,-0.050
'0:05.658',-0.070,-0.050
'0:05.660',-0.060,-0.055
'0:05.662',-0.040,-0.055
'0:05.664',-0.045,-0.055
'0:05.666',-0.045,-0.055
'0:05.668',-0.040,-0.055
'0:05.670',-0.055,-0.055
'0:05.672',-0.065,-0.055
'0:05.674',-0.080,-0.055
'0:05.676',-0.090,-0.055
'0:05.678',-0.080,-0.050
'0:05.680',-0.065,-0.050
'0:05.682',-0.050,-0.045
'0:05.684',-0.050,-0.045
'0:05.686',-0.050,-0.045
'0:05.688',-0.055,-0.045
'0:05.690',-0.070,-0.050
'0:05.692',-0.060,-0.050
'0:05.694',-0.065,-0.055
'0:05.696',-0.065,-0.055
'0:05.698',-0.080,-0.060
'0:05.700',-0.065,-0.060
'0:05.702',-0.055,-0.060
'0:05.704',-0.045,-0.060
'0:05.706',-0.045,-0.060
'0:05.708',-0.045,-0.065
'0:05.710',-0.055,-0.065
'0:05.712',-0.065,-0.065
'0:05.714',-0.065,-0.070
'0:05.716',-0.075,-0.070
'0:05.718',-0.075,-0.070
'0:05.720',-0.065,-0.075
'0:05.722',-0.040,-0.070
'0:05.724',-0.040,-0.070
'0:05.726',-0.035,-0.065
'0:05.728',-0.040,-0.060
'0:05.730',-0.045,-0.060
'0:05.732',-0.060,-0.055
'0:05.734',-0.055,-0.055
'0:05.736',-0.075,-0.060
'0:05.738',-0.070,-0.060
'0:05.740',-0.055,-0.065
'0:05.742',-0.035,-0.075
'0:05.744',-0.045,-0.080
'0:05.746',-0.045,-0.085
'0:05.748',-0.055,-0.090
'0:05.750',-0.065,-0.090
'0:05.752',-0.070,-0.085
'0:05.754',-0.075,-0.080
'0:05.756',-0.090,-0.075
'0:05.758',-0.070,-0.070
'0:05.760',-0.055,-0.065
'0:05.762',-0.050,-0.060
'0:05.764',-0.040,-0.060
'0:05.766',-0.040,-0.065
'0:05.768',-0.040,-0.065
'0:05.770',-0.065,-0.070
'0:05.772',-0.060,-0.070
'0:05.774',-0.085,-0.070
'0:05.776',-0.075,-0.070
'0:05.778',-0.075,-0.070
'0:05.780',-0.050,-0.065
'0:05.782',-0.030,-0.060
'0:05.784',-0.010,-0.055
'0:05.786',0.000,-0.055
'0:05.788',-0.015,-0.055
'0:05.790',-0.025,-0.055
'0:05.792',-0.040,-0.055
'0:05.794',-0.050,-0.050
'0:05.796',-0.045,-0.050
'0:05.798',-0.035,-0.050
'0:05.800',-0.020,-0.045
'0:05.802',-0.010,-0.040
'0:05.804',0.000,-0.035
'0:05.806',0.020,-0.030
'0:05.808',-0.010,-0.025
'0:05.810',-0.020,-0.020
'0:05.812',-0.010,-0.020
'0:05.814',-0.010,-0.020
'0:05.816',-0.015,-0.020
'0:05.818',0.000,-0.020
'0:05.820',0.025,-0.020
'0:05.822',0.030,-0.015
'0:05.824',0.040,-0.005
'0:05.826',0.040,0.000
'0:05.828',0.050,0.015
'0:05.830',0.055,0.025
'0:05.832',0.070,0.035
'0:05.834',0.070,0.045
'0:05.836',0.075,0.055
'0:05.838',0.085,0.065
'0:05.840',0.105,0.070
'0:05.842',0.120,0.075
'0:05.844',0.130,0.080
'0:05.846',0.135,0.085
'0:05.848',0.115,0.090
'0:05.850',0.110,0.090
'0:05.852',0.100,0.095
'0:05.854',0.085,0.100
'0:05.856',0.080,0.100
'0:05.858',0.100,0.100
'0:05.860',0.100,0.100
'0:05.862',0.110,0.095
'0:05.864',0.105,0.090
'0:05.866',0.115,0.085
'0:05.868',0.105,0.080
'0:05.870',0.105,0.075
'0:05.872',0.090,0.075
'0:05.874',0.095,0.075
'0:05.876',0.080,0.075
'0:05.878',0.085,0.080
'0:05.880',0.105,0.085
'0:05.882',0.105,0.085
'0:05.884',0.120,0.090
'0:05.886',0.120,0.090
'0:05.888',0.110,0.090
'0:05.890',0.090,0.090
'0:05.892',0.090,0.090
'0:05.894',0.080,0.090
'0:05.896',0.065,0.085
'0:05.898',0.075,0.085
'0:05.900',0.090,0.085
'0:05.902',0.095,0.085
'0:05.904',0.095,0.080
'0:05.906',0.120,0.080
'0:05.908',0.100,0.080
'0:05.910',0.090,0.075
'0:05.912',0.100,0.075
'0:05.914',0.085,0.070
'0:05.916',0.070,0.070
'0:05.918',0.070,0.070
'0:05.920',0.085,0.070
'0:05.922',0.100,0.070
'0:05.924',0.100,0.070
'0:05.926',0.090,0.070
'0:05.928',0.100,0.070
'0:05.930',0.085,0.070
'0:05.932',0.085,0.070
'0:05.934',0.070,0.065
'0:05.936',0.070,0.065
'0:05.938',0.075,0.060
'0:05.940',0.075,0.055
'0:05.942',0.070,0.055
'0:05.944',0.085,0.050
'0:05.946',0.070,0.045
'0:05.948',0.070,0.040
'0:05.950',0.055,0.035
'0:05.952',0.045,0.030
'0:05.954',0.030,0.030
'0:05.956',0.030,0.030
'0:05.958',0.050,0.040
'0:05.960',0.080,0.060
'0:05.962',0.140,0.085
'0:05.964',0.215,0.130
'0:05.966',0.260,0.180
'0:05.968',0.305,0.250
'0:05.970',0.365,0.325
'0:05.972',0.415,0.415
'0:05.974',0.495,0.505
'0:05.976',0.595,0.595
'0:05.978',0.730,0.675
'0:05.980',0.850,0.740
'0:05.982',0.865,0.780
'0:05.984',0.860,0.795
'0:05.986',0.810,0.775
'0:05.988',0.730,0.725
'0:05.990',0.635,0.645
'0:05.992',0.545,0.545
'0:05.994',0.425,0.430
'0:05.996',0.315,0.310
'0:05.998',0.205,0.195
'0:06.000',0.090,0.100
'0:06.002',0.010,0.030
'0:06.004',0.010,-0.015
'0:06.006',0.040,-0.035
'0:06.008',0.030,-0.030
'0:06.010',0.040,-0.015
'0:06.012',0.050,0.010
'0:06.014',0.070,0.035
'0:06.016',0.090,0.060
'0:06.018',0.115,0.075
'0:06.020',0.120,0.085
'0:06.022',0.130,0.085
'0:06.024',0.130,0.085
'0:06.026',0.120,0.085
'0:06.028',0.110,0.080
'0:06.030',0.105,0.080
'0:06.032',0.095,0.085
'0:06.034',0.085,0.085
'0:06.036',0.090,0.085
'0:06.038',0.100,0.090
'0:06.040',0.105,0.085
'0:06.042',0.110,0.085
'0:06.044',0.125,0.080
'0:06.046',0.125,0.075
'0:06.048',0.110,0.075
'0:06.050',0.105,0.070
'0:06.052',0.105,0.065
'0:06.054',0.085,0.065
'0:06.056',0.090,0.065
'0:06.058',0.105,0.065
'0:06.060',0.105,0.060
'0:06.062',0.110,0.060
'0:06.064',0.115,0.060
'0:06.066',0.120,0.060
'0:06.068',0.105,0.060
'0:06.070',0.095,0.060
'0:06.072',0.095,0.065
'0:06.074',0.085,0.065
'0:06.076',0.095,0.070
'0:06.078',0.110,0.070
'0:06.080',0.120,0.075
'0:06.082',0.125,0.075
'0:06.084',0.135,0.075
'0:06.086',0.145,0.075
'0:06.088',0.130,0.075
'0:06.090',0.110,0.075
'0:06.092',0.105,0.075
'0:06.094',0.110,0.075
'0:06.096',0.115,0.075
'0:06.098',0.130,0.080
'0:06.100',0.125,0.085
'0:06.102',0.145,0.090
'0:06.104',0.160,0.095
'0:06.106',0.150,0.100
'0:06.108',0.135,0.105
'0:06.110',0.120,0.105
'0:06.112',0.120,0.105
'0:06.114',0.120,0.105
'0:06.116',0.120,0.105
'0:06.118',0.135,0.105
'0:06.120',0.145,0.105
'0:06.122',0.165,0.105
'0:06.124',0.175,0.105
'0:06.126',0.165,0.110
'0:06.128',0.160,0.110
'0:06.130',0.165,0.115
'0:06.132',0.165,0.120
'0:06.134',0.150,0.120
'0:06.136',0.145,0.120
'0:06.138',0.155,0.120
'0:06.140',0.155,0.120
'0:06.142',0.155,0.120
'0:06.144',0.160,0.120
'0:06.146',0.145,0.120
'0:06.148',0.165,0.120
'0:06.150',0.175,0.120
'0:06.152',0.165,0.125
'0:06.154',0.155,0.130
'0:06.156',0.175,0.140
'0:06.158',0.190,0.145
'0:06.160',0.200,0.150
'0:06.162',0.225,0.160
'0:06.164',0.220,0.165
'0:06.166',0.230,0.170
'0:06.168',0.230,0.175
'0:06.170',0.240,0.185
'0:06.172',0.230,0.190
'0:06.174',0.225,0.200
'0:06.176',0.245,0.205
'0:06.178',0.255,0.215
'0:06.180',0.260,0.220
'0:06.182',0.290,0.230
'0:06.184',0.285,0.235
'0:06.186',0.270,0.240
'0:06.188',0.265,0.245
'0:06.190',0.295,0.250
'0:06.192',0.315,0.255
'0:06.194',0.300,0.255
'0:06.196',0.300,0.260
'0:06.198',0.300,0.260
'0:06.200',0.310,0.265
'0:06.202',0.325,0.270
'0:06.204',0.320,0.270
'0:06.206',0.325,0.275
'0:06.208',0.315,0.275
'0:06.210',0.315,0.280
'0:06.212',0.305,0.280
'0:06.214',0.300,0.285
'0:06.216',0.305,0.285
'0:06.218',0.315,0.285
'0:06.220',0.310,0.285
'0:06.222',0.310,0.280
'0:06.224',0.305,0.275
'0:06.226',0.295,0.270
'0:06.228',0.285,0.260
'0:06.230',0.270,0.245
'0:06.232',0.240,0.235
'0:06.234',0.225,0.220
'0:06.236',0.220,0.210
'0:06.238',0.220,0.195
'0:06.240',0.220,0.185
'0:06.242',0.210,0.175
'0:06.244',0.195,0.165
'0:06.246',0.165,0.150
'0:06.248',0.150,0.140
'0:06.250',0.140,0.125
'0:06.252',0.135,0.110
'0:06.254',0.100,0.095
'0:06.256',0.100,0.085
'0:06.258',0.095,0.070
'0:06.260',0.120,0.065
'0:06.262',0.105,0.055
'0:06.264',0.100,0.050
'0:06.266',0.080,0.045
'0:06.268',0.050,0.040
'0:06.270',0.035,0.035
'0:06.272',0.025,0.025
'0:06.274',0.015,0.015
'0:06.276',0.005,0.005
'0:06.278',0.020,-0.010
'0:06.280',0.020,-0.020
'0:06.282',0.020,-0.030
'0:06.284',0.030,-0.035
'0:06.286',0.015,-0.040
'0:06.288',-0.010,-0.045
'0:06.290',-0.035,-0.045
'0:06.292',-0.030,-0.045
'0:06.294',-0.020,-0.040
'0:06.296',-0.015,-0.045
'0:06.298',-0.010,-0.045
'0:06.300',0.000,-0.045
'0:06.302',0.005,-0.050
'0:06.304',0.005,-0.055
'0:06.306',-0.020,-0.060
'0:06.308',-0.030,-0.060
'0:06.310',-0.045,-0.060
'0:06.312',-0.040,-0.060
'0:06.314',-0.035,-0.060
'0:06.316',-0.030,-0.060
'0:06.318',-0.030,-0.060
'0:06.320',-0.015,-0.060
'0:06.322',-0.015,-0.065
'0:06.324',-0.010,-0.070
'0:06.326',-0.035,-0.070
'0:06.328',-0.045,-0.075
'0:06.330',-0.045,-0.080
'0:06.332',-0.055,-0.080
'0:06.334',-0.055,-0.080
'0:06.336',-0.030,-0.080
'0:06.338',-0.025,-0.080
'0:06.340',-0.025,-0.075
'0:06.342',-0.030,-0.075
'0:06.344',-0.040,-0.070
'0:06.346',-0.055,-0.070
'0:06.348',-0.065,-0.070
'0:06.350',-0.070,-0.070
'0:06.352',-0.075,-0.075
'0:06.354',-0.070,-0.075
'0:06.356',-0.055,-0.075
'0:06.358',-0.035,-0.075
'0:06.360',-0.030,-0.075
'0:06.362',-0.025,-0.075
'0:06.364',-0.040,-0.075
'0:06.366',-0.055,-0.075
'0:06.368',-0.070,-0.080
'0:06.370',-0.090,-0.085
'0:06.372',-0.085,-0.085
'0:06.374',-0.065,-0.090
'0:06.376',-0.060,-0.095
'0:06.378',-0.045,-0.095
'0:06.380',-0.045,-0.100
'0:06.382',-0.030,-0.095
'0:06.384',-0.040,-0.095
'0:06.386',-0.055,-0.090
'0:06.388',-0.060,-0.090
'0:06.390',-0.060,-0.085
'0:06.392',-0.070,-0.085
'0:06.394',-0.055,-0.085
'0:06.396',-0.050,-0.085
'0:06.398',-0.035,-0.085
'0:06.400',-0.030,-0.080
'0:06.402',-0.025,-0.080
'0:06.404',-0.030,-0.080
'0:06.406',-0.045,-0.075
'0:06.408',-0.050,-0.075
'0:06.410',-0.060,-0.075
'0:06.412',-0.065,-0.070
'0:06.414',-0.055,-0.070
'0:06.416',-0.045,-0.075
'0:06.418',-0.035,-0.075
'0:06.420',-0.035,-0.080
'0:06.422',-0.030,-0.085
'0:06.424',-0.050,-0.090
'0:06.426',-0.050,-0.090
'0:06.428',-0.045,-0.095
'0:06.430',-0.050,-0.095
'0:06.432',-0.055,-0.095
'0:06.434',-0.040,-0.095
'0:06.436',-0.030,-0.090
'0:06.438',-0.045,-0.090
'0:06.440',-0.040,-0.085
'0:06.442',-0.055,-0.085
'0:06.444',-0.075,-0.085
'0:06.446',-0.095,-0.085
'0:06.448',-0.100,-0.090
'0:06.450',-0.095,-0.095
'0:06.452',-0.090,-0.100
'0:06.454',-0.080,-0.105
'0:06.456',-0.080,-0.110
'0:06.458',-0.050,-0.110
'0:06.460',-0.045,-0.115
'0:06.462',-0.050,-0.115
'0:06.464',-0.050,-0.115
'0:06.466',-0.070,-0.110
'0:06.468',-0.080,-0.110
'0:06.470',-0.085,-0.105
'0:06.472',-0.095,-0.100
'0:06.474',-0.075,-0.100
'0:06.476',-0.065,-0.095
'0:06.478',-0.050,-0.095
'0:06.480',-0.045,-0.095
'0:06.482',-0.050,-0.100
'0:06.484',-0.055,-0.100
'0:06.486',-0.075,-0.100
'0:06.488',-0.080,-0.100
'0:06.490',-0.090,-0.100
'0:06.492',-0.090,-0.100
'0:06.494',-0.080,-0.100
'0:06.496',-0.080,-0.100
'0:06.498',-0.075,-0.100
'0:06.500',-0.075,-0.105
'0:06.502',-0.060,-0.105
'0:06.504',-0.075,-0.110
'0:06.506',-0.090,-0.115
'0:06.508',-0.090,-0.120
'0:06.510',-0.085,-0.125
'0:06.512',-0.095,-0.130
'0:06.514',-0.095,-0.130
'0:06.516',-0.080,-0.130
'0:06.518',-0.085,-0.135
'0:06.520',-0.090,-0.135
'0:06.522',-0.080,-0.135
'0:06.524',-0.085,-0.130
'0:06.526',-0.100,-0.130
'0:06.528',-0.130,-0.130
'0:06.530',-0.115,-0.125
'0:06.532',-0.115,-0.125
'0:06.534',-0.095,-0.120
'0:06.536',-0.090,-0.120
'0:06.538',-0.090,-0.120
'0:06.540',-0.080,-0.120
'0:06.542',-0.080,-0.125
'0:06.544',-0.085,-0.125
'0:06.546',-0.080,-0.130
'0:06.548',-0.105,-0.135
'0:06.550',-0.115,-0.145
'0:06.552',-0.115,-0.145
'0:06.554',-0.110,-0.150
'0:06.556',-0.095,-0.150
'0:06.558',-0.090,-0.150
'0:06.560',-0.080,-0.145
'0:06.562',-0.080,-0.140
'0:06.564',-0.085,-0.140
'0:06.566',-0.095,-0.135
'0:06.568',-0.100,-0.135
'0:06.570',-0.115,-0.130
'0:06.572',-0.120,-0.130
'0:06.574',-0.110,-0.130
'0:06.576',-0.115,-0.130
'0:06.578',-0.095,-0.130
'0:06.580',-0.080,-0.130
'0:06.582',-0.080,-0.130
'0:06.584',-0.085,-0.130
'0:06.586',-0.100,-0.130
'0:06.588',-0.115,-0.130
'0:06.590',-0.105,-0.130
'0:06.592',-0.115,-0.130
'0:06.594',-0.110,-0.130
'0:06.596',-0.115,-0.130
'0:06.598',-0.100,-0.130
'0:06.600',-0.100,-0.130
'0:06.602',-0.095,-0.125
'0:06.604',-0.095,-0.125
'0:06.606',-0.110,-0.120
'0:06.608',-0.110,-0.120
'0:06.610',-0.120,-0.120
'0:06.612',-0.105,-0.120
'0:06.614',-0.085,-0.125
'0:06.616',-0.090,-0.125
'0:06.618',-0.080,-0.130
'0:06.620',-0.095,-0.130
'0:06.622',-0.095,-0.130
'0:06.624',-0.100,-0.130
'0:06.626',-0.125,-0.130
'0:06.628',-0.120,-0.125
'0:06.630',-0.125,-0.120
'0:06.632',-0.100,-0.115
'0:06.634',-0.090,-0.110
'0:06.636',-0.105,-0.110
'0:06.638',-0.105,-0.105
'0:06.640',-0.085,-0.105
'0:06.642',-0.080,-0.105
'0:06.644',-0.090,-0.105
'0:06.646',-0.110,-0.105
'0:06.648',-0.100,-0.110
'0:06.650',-0.105,-0.110
'0:06.652',-0.120,-0.110
'0:06.654',-0.100,-0.115
'0:06.656',-0.095,-0.115
'0:06.658',-0.085,-0.115
'0:06.660',-0.085,-0.115
'0:06.662',-0.085,-0.115
'0:06.664',-0.095,-0.110
'0:06.666',-0.110,-0.105
'0:06.668',-0.110,-0.100
'0:06.670',-0.115,-0.095
'0:06.672',-0.110,-0.090
'0:06.674',-0.075,-0.090
'0:06.676',-0.070,-0.090
'0:06.678',-0.065,-0.090
'0:06.680',-0.055,-0.090
'0:06.682',-0.045,-0.095
'0:06.684',-0.070,-0.095
'0:06.686',-0.080,-0.095
'0:06.688',-0.080,-0.095
'0:06.690',-0.080,-0.095
'0:06.692',-0.085,-0.090
'0:06.694',-0.080,-0.085
'0:06.696',-0.070,-0.085
'0:06.698',-0.070,-0.085
'0:06.700',-0.055,-0.085
'0:06.702',-0.045,-0.085
'0:06.704',-0.055,-0.085
'0:06.706',-0.065,-0.080
'0:06.708',-0.065,-0.080
'0:06.710',-0.065,-0.075
'0:06.712',-0.045,-0.065
'0:06.714',-0.050,-0.060
'0:06.716',-0.025,-0.050
'0:06.718',-0.040,-0.040
'0:06.720',-0.010,-0.035
'0:06.722',-0.035,-0.030
'0:06.724',-0.040,-0.025
'0:06.726',-0.050,-0.025
'0:06.728',-0.055,-0.025
'0:06.730',-0.065,-0.030
'0:06.732',-0.055,-0.035
'0:06.734',-0.045,-0.040
'0:06.736',-0.045,-0.050
'0:06.738',-0.050,-0.060
'0:06.740',-0.035,-0.065
'0:06.742',-0.075,-0.075
'0:06.744',-0.095,-0.080
'0:06.746',-0.095,-0.090
'0:06.748',-0.100,-0.095
'0:06.750',-0.115,-0.100
'0:06.752',-0.125,-0.100
'0:06.754',-0.110,-0.105
'0:06.756',-0.080,-0.105
'0:06.758',-0.105,-0.110
'0:06.760',-0.110,-0.115
'0:06.762',-0.115,-0.115
'0:06.764',-0.115,-0.120
'0:06.766',-0.110,-0.125
'0:06.768',-0.110,-0.125
'0:06.770',-0.130,-0.125
'0:06.772',-0.120,-0.125
'0:06.774',-0.100,-0.120
'0:06.776',-0.120,-0.115
'0:06.778',-0.095,-0.115
'0:06.780',-0.095,-0.110
'0:06.782',-0.110,-0.105
'0:06.784',-0.110,-0.105
'0:06.786',-0.115,-0.105
'0:06.788',-0.125,-0.105
'0:06.790',-0.135,-0.110
'0:06.792',-0.135,-0.110
'0:06.794',-0.115,-0.115
'0:06.796',-0.110,-0.120
'0:06.798',-0.115,-0.120
'0:06.800',-0.105,-0.125
'0:06.802',-0.125,-0.130
'0:06.804',-0.135,-0.130
'0:06.806',-0.130,-0.135
'0:06.808',-0.130,-0.135
'0:06.810',-0.135,-0.130
'0:06.812',-0.130,-0.130
'0:06.814',-0.110,-0.125
'0:06.816',-0.105,-0.120
'0:06.818',-0.100,-0.120
'0:06.820',-0.110,-0.115
'0:06.822',-0.115,-0.115
'0:06.824',-0.135,-0.115
'0:06.826',-0.135,-0.120
'0:06.828',-0.135,-0.125
'0:06.830',-0.135,-0.130
'0:06.832',-0.155,-0.130
'0:06.834',-0.145,-0.135
'0:06.836',-0.130,-0.135
'0:06.838',-0.130,-0.135
'0:06.840',-0.140,-0.135
'0:06.842',-0.160,-0.135
'0:06.844',-0.185,-0.135
'0:06.846',-0.175,-0.130
'0:06.848',-0.165,-0.125
'0:06.850',-0.125,-0.110
'0:06.852',-0.060,-0.080
'0:06.854',-0.005,-0.040
'0:06.856',0.045,0.015
'0:06.858',0.105,0.085
'0:06.860',0.180,0.170
'0:06.862',0.245,0.255
'0:06.864',0.330,0.345
'0:06.866',0.435,0.425
'0:06.868',0.515,0.490
'0:06.870',0.555,0.530
'0:06.872',0.555,0.550
'0:06.874',0.525,0.540
'0:06.876',0.480,0.500
'0:06.878',0.415,0.440
'0:06.880',0.360,0.355
'0:06.882',0.255,0.260
'0:06.884',0.135,0.160
'0:06.886',-0.010,0.060
'0:06.888',-0.115,-0.030
'0:06.890',-0.195,-0.100
'0:06.892',-0.215,-0.155
'0:06.894',-0.215,-0.190
'0:06.896',-0.190,-0.205
'0:06.898',-0.165,-0.200
'0:06.900',-0.160,-0.185
'0:06.902',-0.150,-0.160
'0:06.904',-0.125,-0.130
'0:06.906',-0.105,-0.105
'0:06.908',-0.110,-0.085
'0:06.910',-0.090,-0.075
'0:06.912',-0.090,-0.065
'0:06.914',-0.080,-0.065
'0:06.916',-0.080,-0.065
'0:06.918',-0.080,-0.065
'0:06.920',-0.085,-0.065
'0:06.922',-0.090,-0.060
'0:06.924',-0.105,-0.060
'0:06.926',-0.115,-0.060
'0:06.928',-0.115,-0.060
'0:06.930',-0.115,-0.065
'0:06.932',-0.095,-0.070
'0:06.934',-0.095,-0.075
'0:06.936',-0.095,-0.080
'0:06.938',-0.075,-0.085
'0:06.940',-0.085,-0.085
'0:06.942',-0.095,-0.085
'0:06.944',-0.095,-0.080
'0:06.946',-0.090,-0.075
'0:06.948',-0.105,-0.065
'0:06.950',-0.090,-0.060
'0:06.952',-0.065,-0.055
'0:06.954',-0.075,-0.050
'0:06.956',-0.075,-0.050
'0:06.958',-0.065,-0.050
'0:06.960',-0.060,-0.050
'0:06.962',-0.070,-0.055
'0:06.964',-0.090,-0.055
'0:06.966',-0.095,-0.055
'0:06.968',-0.100,-0.055
'0:06.970',-0.090,-0.055
'0:06.972',-0.065,-0.050
'0:06.974',-0.060,-0.050
'0:06.976',-0.055,-0.045
'0:06.978',-0.030,-0.045
'0:06.980',-0.055,-0.045
'0:06.982',-0.070,-0.045
'0:06.984',-0.070,-0.045
'0:06.986',-0.075,-0.045
'0:06.988',-0.070,-0.045
'0:06.990',-0.070,-0.045
'0:06.992',-0.060,-0.045
'0:06.994',-0.055,-0.045
'0:06.996',-0.050,-0.040
'0:06.998',-0.040,-0.040
'0:07.000',-0.055,-0.035
'0:07.002',-0.050,-0.030
'0:07.004',-0.045,-0.020
'0:07.006',-0.055,-0.015
'0:07.008',-0.060,-0.010
'0:07.010',-0.040,-0.005
'0:07.012',-0.030,0.000
'0:07.014',-0.030,0.000
'0:07.016',-0.020,0.005
'0:07.018',-0.020,0.005
'0:07.020',-0.035,0.010
'0:07.022',-0.035,0.010
'0:07.024',-0.035,0.015
'0:07.026',-0.035,0.020
'0:07.028',-0.040,0.020
'0:07.030',-0.035,0.025
'0:07.032',-0.005,0.030
'0:07.034',0.020,0.030
'0:07.036',0.020,0.035
'0:07.038',0.020,0.035
'0:07.040',0.010,0.030
'0:07.042',0.015,0.030
'0:07.044',0.010,0.030
'0:07.046',0.010,0.030
'0:07.048',0.015,0.035
'0:07.050',0.020,0.040
'0:07.052',0.025,0.045
'0:07.054',0.020,0.055
'0:07.056',0.035,0.065
'0:07.058',0.055,0.075
'0:07.060',0.065,0.085
'0:07.062',0.055,0.095
'0:07.064',0.060,0.100
'0:07.066',0.060,0.110
'0:07.068',0.070,0.115
'0:07.070',0.100,0.120
'0:07.072',0.115,0.125
'0:07.074',0.115,0.130
'0:07.076',0.105,0.135
'0:07.078',0.125,0.140
'0:07.080',0.125,0.145
'0:07.082',0.115,0.150
'0:07.084',0.105,0.155
'0:07.086',0.115,0.160
'0:07.088',0.110,0.160
'0:07.090',0.125,0.160
'0:07.092',0.125,0.160
'0:07.094',0.130,0.160
'0:07.096',0.145,0.160
'0:07.098',0.150,0.160
'0:07.100',0.135,0.160
'0:07.102',0.130,0.165
'0:07.104',0.130,0.165
'0:07.106',0.115,0.170
'0:07.108',0.110,0.175
'0:07.110',0.130,0.175
'0:07.112',0.135,0.180
'0:07.114',0.135,0.175
'0:07.116',0.130,0.175
'0:07.118',0.130,0.170
'0:07.120',0.115,0.165
'0:07.122',0.085,0.155
'0:07.124',0.075,0.150
'0:07.126',0.065,0.140
'0:07.128',0.060,0.130
'0:07.130',0.055,0.120
'0:07.132',0.050,0.110
'0:07.134',0.030,0.100
'0:07.136',0.040,0.090
'0:07.138',0.030,0.080
'0:07.140',0.020,0.070
'0:07.142',-0.015,0.060
'0:07.144',-0.025,0.055
'0:07.146',-0.030,0.050
'0:07.148',-0.030,0.045
'0:07.150',-0.030,0.040
'0:07.152',-0.030,0.035
'0:07.154',-0.030,0.030
'0:07.156',-0.020,0.025
'0:07.158',-0.040,0.020
'0:07.160',-0.050,0.010
'0:07.162',-0.075,0.000
'0:07.164',-0.085,-0.010
'0:07.166',-0.080,-0.020
'0:07.168',-0.080,-0.025
'0:07.170',-0.065,-0.030
'0:07.172',-0.070,-0.035
'0:07.174',-0.065,-0.040
'0:07.176',-0.055,-0.040
'0:07.178',-0.075,-0.040
'0:07.180',-0.090,-0.040
'0:07.182',-0.115,-0.035
'0:07.184',-0.100,-0.035
'0:07.186',-0.110,-0.035
'0:07.188',-0.115,-0.040
'0:07.190',-0.105,-0.040
'0:07.192',-0.095,-0.040
'0:07.194',-0.090,-0.045
'0:07.196',-0.075,-0.050
'0:07.198',-0.060,-0.050
'0:07.200',-0.095,-0.050
'0:07.202',-0.100,-0.055
'0:07.204',-0.125,-0.055
'0:07.206',-0.115,-0.055
'0:07.208',-0.115,-0.055
'0:07.210',-0.100,-0.055
'0:07.212',-0.100,-0.055
'0:07.214',-0.100,-0.050
'0:07.216',-0.090,-0.050
'0:07.218',-0.090,-0.050
'0:07.220',-0.100,-0.045
'0:07.222',-0.110,-0.045
'0:07.224',-0.105,-0.045
'0:07.226',-0.115,-0.045
'0:07.228',-0.105,-0.040
'0:07.230',-0.090,-0.040
'0:07.232',-0.080,-0.040
'0:07.234',-0.075,-0.040
'0:07.236',-0.075,-0.040
'0:07.238',-0.095,-0.040
'0:07.240',-0.100,-0.040
'0:07.242',-0.105,-0.040
'0:07.244',-0.120,-0.035
'0:07.246',-0.120,-0.035
'0:07.248',-0.115,-0.035
'0:07.250',-0.095,-0.035
'0:07.252',-0.095,-0.040
'0:07.254',-0.090,-0.040
'0:07.256',-0.070,-0.040
'0:07.258',-0.095,-0.045
'0:07.260',-0.095,-0.045
'0:07.262',-0.090,-0.045
'0:07.264',-0.105,-0.045
'0:07.266',-0.110,-0.045
'0:07.268',-0.090,-0.040
'0:07.270',-0.070,-0.035
'0:07.272',-0.070,-0.035
'0:07.274',-0.070,-0.030
'0:07.276',-0.070,-0.025
'0:07.278',-0.085,-0.025
'0:07.280',-0.100,-0.020
'0:07.282',-0.100,-0.020
'0:07.284',-0.100,-0.020
'0:07.286',-0.110,-0.025
'0:07.288',-0.110,-0.025
'0:07.290',-0.090,-0.030
'0:07.292',-0.090,-0.035
'0:07.294',-0.070,-0.035
'0:07.296',-0.070,-0.040
'0:07.298',-0.075,-0.040
'0:07.300',-0.095,-0.040
'0:07.302',-0.110,-0.040
'0:07.304',-0.100,-0.035
'0:07.306',-0.100,-0.035
'0:07.308',-0.095,-0.025
'0:07.310',-0.095,-0.020
'0:07.312',-0.080,-0.015
'0:07.314',-0.075,-0.015
'0:07.316',-0.050,-0.015
'0:07.318',-0.065,-0.015
'0:07.320',-0.085,-0.015
'0:07.322',-0.090,-0.020
'0:07.324',-0.110,-0.025
'0:07.326',-0.115,-0.030
'0:07.328',-0.100,-0.030
'0:07.330',-0.095,-0.035
'0:07.332',-0.085,-0.035
'0:07.334',-0.065,-0.030
'0:07.336',-0.060,-0.030
'0:07.338',-0.065,-0.030
'0:07.340',-0.095,-0.025
'0:07.342',-0.120,-0.025
'0:07.344',-0.100,-0.025
'0:07.346',-0.100,-0.025
'0:07.348',-0.105,-0.025
'0:07.350',-0.085,-0.025
'0:07.352',-0.075,-0.025
'0:07.354',-0.075,-0.025
'0:07.356',-0.070,-0.030
'0:07.358',-0.085,-0.030
'0:07.360',-0.100,-0.030
'0:07.362',-0.115,-0.035
'0:07.364',-0.120,-0.035
'0:07.366',-0.115,-0.040
'0:07.368',-0.100,-0.040
'0:07.370',-0.080,-0.045
'0:07.372',-0.090,-0.045
'0:07.374',-0.090,-0.045
'0:07.376',-0.070,-0.045
'0:07.378',-0.095,-0.045
'0:07.380',-0.115,-0.045
'0:07.382',-0.115,-0.045
'0:07.384',-0.115,-0.050
'0:07.386',-0.120,-0.050
'0:07.388',-0.115,-0.050
'0:07.390',-0.095,-0.050
'0:07.392',-0.100,-0.050
'0:07.394',-0.095,-0.050
'0:07.396',-0.075,-0.045
'0:07.398',-0.095,-0.045
'0:07.400',-0.110,-0.040
'0:07.402',-0.125,-0.040
'0:07.404',-0.120,-0.040
'0:07.406',-0.100,-0.040
'0:07.408',-0.115,-0.040
'0:07.410',-0.110,-0.045
'0:07.412',-0.100,-0.045
'0:07.414',-0.080,-0.045
'0:07.416',-0.095,-0.045
'0:07.418',-0.095,-0.045
'0:07.420',-0.110,-0.040
'0:07.422',-0.130,-0.035
'0:07.424',-0.120,-0.030
'0:07.426',-0.125,-0.030
'0:07.428',-0.120,-0.025
'0:07.430',-0.110,-0.025
'0:07.432',-0.105,-0.025
'0:07.434',-0.095,-0.030
'0:07.436',-0.100,-0.030
'0:07.438',-0.105,-0.035
'0:07.440',-0.120,-0.040
'0:07.442',-0.120,-0.040
'0:07.444',-0.125,-0.045
'0:07.446',-0.120,-0.040
'0:07.448',-0.105,-0.040
'0:07.450',-0.095,-0.035
'0:07.452',-0.095,-0.030
'0:07.454',-0.090,-0.030
'0:07.456',-0.100,-0.030
'0:07.458',-0.105,-0.030
'0:07.460',-0.115,-0.035
'0:07.462',-0.115,-0.040
'0:07.464',-0.140,-0.045
'0:07.466',-0.135,-0.055
'0:07.468',-0.120,-0.060
'0:07.470',-0.120,-0.065
'0:07.472',-0.110,-0.070
'0:07.474',-0.105,-0.070
'0:07.476',-0.095,-0.070
'0:07.478',-0.115,-0.065
'0:07.480',-0.130,-0.060
'0:07.482',-0.130,-0.055
'0:07.484',-0.115,-0.050
'0:07.486',-0.125,-0.045
'0:07.488',-0.105,-0.045
'0:07.490',-0.105,-0.040
'0:07.492',-0.095,-0.040
'0:07.494',-0.095,-0.035
'0:07.496',-0.110,-0.035
'0:07.498',-0.105,-0.035
'0:07.500',-0.105,-0.035
'0:07.502',-0.115,-0.035
'0:07.504',-0.135,-0.035
'0:07.506',-0.145,-0.040
'0:07.508',-0.115,-0.040
'0:07.510',-0.100,-0.045
'0:07.512',-0.110,-0.045
'0:07.514',-0.095,-0.050
'0:07.516',-0.095,-0.050
'0:07.518',-0.110,-0.050
'0:07.520',-0.115,-0.050
'0:07.522',-0.120,-0.050
'0:07.524',-0.130,-0.050
'0:07.526',-0.140,-0.050
'0:07.528',-0.125,-0.050
'0:07.530',-0.115,-0.050
'0:07.532',-0.100,-0.050
'0:07.534',-0.100,-0.050
'0:07.536',-0.110,-0.050
'0:07.538',-0.105,-0.050
'0:07.540',-0.105,-0.055
'0:07.542',-0.100,-0.055
'0:07.544',-0.125,-0.050
'0:07.546',-0.105,-0.045
'0:07.548',-0.080,-0.040
'0:07.550',-0.080,-0.035
'0:07.552',-0.060,-0.025
'0:07.554',-0.065,-0.015
'0:07.556',-0.065,-0.010
'0:07.558',-0.080,-0.005
'0:07.560',-0.095,-0.005
'0:07.562',-0.100,-0.010
'0:07.564',-0.110,-0.010
'0:07.566',-0.105,-0.015
'0:07.568',-0.075,-0.020
'0:07.570',-0.050,-0.025
'0:07.572',-0.050,-0.030
'0:07.574',-0.045,-0.025
'0:07.576',-0.050,-0.020
'0:07.578',-0.065,-0.015
'0:07.580',-0.070,-0.005
'0:07.582',-0.055,0.005
'0:07.584',-0.065,0.010
'0:07.586',-0.055,0.020
'0:07.588',-0.060,0.020
'0:07.590',-0.040,0.025
'0:07.592',-0.035,0.025
'0:07.594',-0.030,0.020
'0:07.596',-0.045,0.020
'0:07.598',-0.060,0.015
'0:07.600',-0.065,0.015
'0:07.602',-0.065,0.015
'0:07.604',-0.075,0.010
'0:07.606',-0.075,0.010
'0:07.608',-0.075,0.005
'0:07.610',-0.075,0.000
'0:07.612',-0.050,-0.010
'0:07.614',-0.070,-0.020
'0:07.616',-0.095,-0.030
'0:07.618',-0.095,-0.040
'0:07.620',-0.110,-0.050
'0:07.622',-0.115,-0.055
'0:07.624',-0.135,-0.060
'0:07.626',-0.110,-0.060
'0:07.628',-0.105,-0.060
'0:07.630',-0.115,-0.060
'0:07.632',-0.105,-0.055
'0:07.634',-0.100,-0.055
'0:07.636',-0.105,-0.055
'0:07.638',-0.115,-0.055
'0:07.640',-0.135,-0.055
'0:07.642',-0.140,-0.055
'0:07.644',-0.130,-0.060
'0:07.646',-0.130,-0.060
'0:07.648',-0.120,-0.060
'0:07.650',-0.115,-0.060
'0:07.652',-0.100,-0.060
'0:07.654',-0.095,-0.060
'0:07.656',-0.105,-0.060
'0:07.658',-0.120,-0.060
'0:07.660',-0.120,-0.060
'0:07.662',-0.120,-0.065
'0:07.664',-0.150,-0.070
'0:07.666',-0.130,-0.070
'0:07.668',-0.120,-0.075
'0:07.670',-0.115,-0.075
'0:07.672',-0.135,-0.080
'0:07.674',-0.120,-0.075
'0:07.676',-0.110,-0.075
'0:07.678',-0.110,-0.070
'0:07.680',-0.115,-0.070
'0:07.682',-0.130,-0.065
'0:07.684',-0.135,-0.065
'0:07.686',-0.135,-0.065
'0:07.688',-0.125,-0.065
'0:07.690',-0.105,-0.065
'0:07.692',-0.110,-0.065
'0:07.694',-0.110,-0.065
'0:07.696',-0.135,-0.065
'0:07.698',-0.135,-0.070
'0:07.700',-0.150,-0.070
'0:07.702',-0.160,-0.080
'0:07.704',-0.160,-0.085
'0:07.706',-0.145,-0.095
'0:07.708',-0.150,-0.100
'0:07.710',-0.170,-0.105
'0:07.712',-0.150,-0.105
'0:07.714',-0.135,-0.100
'0:07.716',-0.115,-0.085
'0:07.718',-0.080,-0.055
'0:07.720',-0.040,-0.020
'0:07.722',0.000,0.030
'0:07.724',0.030,0.090
'0:07.726',0.095,0.150
'0:07.728',0.155,0.220
'0:07.730',0.240,0.290
'0:07.732',0.345,0.355
'0:07.734',0.415,0.415
'0:07.736',0.500,0.460
'0:07.738',0.485,0.490
'0:07.740',0.465,0.495
'0:07.742',0.395,0.485
'0:07.744',0.350,0.445
'0:07.746',0.285,0.385
'0:07.748',0.240,0.305
'0:07.750',0.175,0.215
'0:07.752',0.085,0.120
'0:07.754',-0.025,0.030
'0:07.756',-0.135,-0.050
'0:07.758',-0.220,-0.110
'0:07.760',-0.225,-0.150
'0:07.762',-0.205,-0.165
'0:07.764',-0.180,-0.160
'0:07.766',-0.150,-0.145
'0:07.768',-0.135,-0.120
'0:07.770',-0.110,-0.090
'0:07.772',-0.095,-0.070
'0:07.774',-0.085,-0.055
'0:07.776',-0.075,-0.045
'0:07.778',-0.095,-0.050
'0:07.780',-0.105,-0.055
'0:07.782',-0.125,-0.060
'0:07.784',-0.120,-0.065
'0:07.786',-0.120,-0.065
'0:07.788',-0.110,-0.060
'0:07.790',-0.095,-0.055
'0:07.792',-0.080,-0.045
'0:07.794',-0.075,-0.040
'0:07.796',-0.085,-0.035
'0:07.798',-0.100,-0.040
'0:07.800',-0.120,-0.045
'0:07.802',-0.125,-0.055
'0:07.804',-0.110,-0.065
'0:07.806',-0.120,-0.070
'0:07.808',-0.115,-0.080
'0:07.810',-0.100,-0.080
'0:07.812',-0.090,-0.080
'0:07.814',-0.085,-0.075
'0:07.816',-0.100,-0.065
'0:07.818',-0.100,-0.060
'0:07.820',-0.090,-0.050
'0:07.822',-0.095,-0.045
'0:07.824',-0.085,-0.045
'0:07.826',-0.090,-0.040
'0:07.828',-0.090,-0.045
'0:07.830',-0.085,-0.045
'0:07.832',-0.065,-0.045
'0:07.834',-0.075,-0.045
'0:07.836',-0.080,-0.045
'0:07.838',-0.075,-0.045
'0:07.840',-0.080,-0.040
'0:07.842',-0.100,-0.035
'0:07.844',-0.090,-0.035
'0:07.846',-0.070,-0.030
'0:07.848',-0.055,-0.030
'0:07.850',-0.065,-0.030
'0:07.852',-0.065,-0.030
'0:07.854',-0.060,-0.025
'0:07.856',-0.035,-0.015
'0:07.858',-0.025,-0.005
'0:07.860',-0.015,0.005
'0:07.862',0.000,0.020
'0:07.864',0.015,0.035
'0:07.866',0.040,0.050
'0:07.868',0.040,0.070
'0:07.870',0.075,0.080
'0:07.872',0.085,0.090
'0:07.874',0.085,0.100
'0:07.876',0.090,0.110
'0:07.878',0.095,0.115
'0:07.880',0.070,0.125
'0:07.882',0.080,0.130
'0:07.884',0.100,0.135
'0:07.886',0.100,0.140
'0:07.888',0.120,0.145
'0:07.890',0.135,0.145
'0:07.892',0.145,0.150
'0:07.894',0.125,0.150
'0:07.896',0.135,0.155
'0:07.898',0.130,0.160
'0:07.900',0.115,0.170
'0:07.902',0.135,0.175
'0:07.904',0.145,0.185
'0:07.906',0.180,0.195
'0:07.908',0.190,0.205
'0:07.910',0.175,0.210
'0:07.912',0.185,0.215
'0:07.914',0.190,0.220
'0:07.916',0.180,0.220
'0:07.918',0.185,0.215
'0:07.920',0.180,0.215
'0:07.922',0.185,0.215
'0:07.924',0.195,0.220
'0:07.926',0.215,0.225
'0:07.928',0.210,0.235
'0:07.930',0.220,0.245
'0:07.932',0.250,0.260
'0:07.934',0.255,0.270
'0:07.936',0.250,0.280
'0:07.938',0.260,0.290
'0:07.940',0.245,0.300
'0:07.942',0.260,0.305
'0:07.944',0.260,0.310
'0:07.946',0.285,0.310
'0:07.948',0.275,0.315
'0:07.950',0.305,0.315
'0:07.952',0.305,0.320
'0:07.954',0.295,0.320
'0:07.956',0.290,0.325
'0:07.958',0.270,0.325
'0:07.960',0.275,0.325
'0:07.962',0.280,0.325
'0:07.964',0.285,0.325
'0:07.966',0.295,0.320
'0:07.968',0.320,0.320
'0:07.970',0.290,0.320
'0:07.972',0.320,0.320
'0:07.974',0.305,0.320
'0:07.976',0.300,0.325
'0:07.978',0.280,0.325
'0:07.980',0.260,0.325
'0:07.982',0.270,0.325
'0:07.984',0.260,0.320
'0:07.986',0.270,0.315
'0:07.988',0.270,0.310
'0:07.990',0.265,0.300
'0:07.992',0.265,0.290
'0:07.994',0.240,0.275
'0:07.996',0.215,0.265
'0:07.998',0.225,0.255
'0:08.000',0.210,0.245
'0:08.002',0.180,0.235
'0:08.004',0.175,0.230
'0:08.006',0.170,0.220
'0:08.008',0.170,0.210
'0:08.010',0.185,0.200
'0:08.012',0.160,0.190
'0:08.014',0.145,0.180
'0:08.016',0.125,0.170
'0:08.018',0.115,0.160
'0:08.020',0.100,0.155
'0:08.022',0.110,0.150
'0:08.024',0.105,0.145
'0:08.026',0.100,0.140
'0:08.028',0.130,0.135
'0:08.030',0.110,0.130
'0:08.032',0.105,0.130
'0:08.034',0.085,0.125
'0:08.036',0.070,0.120
'0:08.038',0.065,0.115
'0:08.040',0.065,0.115
'0:08.042',0.060,0.110
'0:08.044',0.075,0.110
'0:08.046',0.075,0.110
'0:08.048',0.070,0.105
'0:08.050',0.065,0.105
'0:08.052',0.065,0.105
'0:08.054',0.060,0.100
'0:08.056',0.045,0.095
'0:08.058',0.035,0.090
'0:08.060',0.035,0.080
'0:08.062',0.020,0.075
'0:08.064',0.035,0.070
'0:08.066',0.050,0.065
'0:08.068',0.050,0.065
'0:08.070',0.070,0.065
'0:08.072',0.070,0.070
'0:08.074',0.050,0.075
'0:08.076',0.050,0.080
'0:08.078',0.040,0.085
'0:08.080',0.030,0.085
'0:08.082',0.035,0.085
'0:08.084',0.050,0.080
'0:08.086',0.050,0.075
'0:08.088',0.070,0.070
'0:08.090',0.080,0.065
'0:08.092',0.055,0.060
'0:08.094',0.045,0.060
'0:08.096',0.040,0.060
'0:08.098',0.030,0.060
'0:08.100',0.040,0.065
'0:08.102',0.020,0.065
'0:08.104',0.040,0.065
'0:08.106',0.050,0.065
'0:08.108',0.050,0.065
'0:08.110',0.060,0.065
'0:08.112',0.045,0.065
'0:08.114',0.035,0.060
'0:08.116',0.035,0.060
'0:08.118',0.025,0.060
'0:08.120',0.025,0.060
'0:08.122',0.030,0.060
'0:08.124',0.040,0.060
'0:08.126',0.050,0.060
'0:08.128',0.055,0.060
'0:08.130',0.065,0.055
'0:08.132',0.050,0.055
'0:08.134',0.045,0.055
'0:08.136',0.030,0.055
'0:08.138',0.020,0.050
'0:08.140',0.015,0.050
'0:08.142',0.010,0.050
'0:08.144',0.015,0.050
'0:08.146',0.030,0.050
'0:08.148',0.040,0.050
'0:08.150',0.050,0.045
'0:08.152',0.040,0.045
'0:08.154',0.025,0.045
'0:08.156',0.020,0.040
'0:08.158',0.005,0.040
'0:08.160',0.010,0.040
'0:08.162',0.010,0.040
'0:08.164',0.030,0.040
'0:08.166',0.035,0.040
'0:08.168',0.045,0.040
'0:08.170',0.035,0.040
'0:08.172',0.035,0.035
'0:08.174',0.015,0.035
'0:08.176',0.010,0.030
'0:08.178',0.000,0.030
'0:08.180',-0.010,0.025
'0:08.182',-0.005,0.020
'0:08.184',0.015,0.020
'0:08.186',0.015,0.015
'0:08.188',0.010,0.015
'0:08.190',0.025,0.020
'0:08.192',0.015,0.020
'0:08.194',0.005,0.020
'0:08.196',-0.015,0.025
'0:08.198',0.010,0.025
'0:08.200',0.005,0.025
'0:08.202',-0.005,0.025
'0:08.204',0.005,0.020
'0:08.206',0.010,0.015
'0:08.208',0.020,0.010
'0:08.210',0.000,0.005
'0:08.212',0.010,0.000
'0:08.214',-0.015,-0.005
'0:08.216',-0.040,-0.005
'0:08.218',-0.045,-0.010
'0:08.220',-0.050,-0.010
'0:08.222',-0.030,-0.010
'0:08.224',-0.015,-0.005
'0:08.226',-0.005,-0.005
'0:08.228',0.010,-0.005
'0:08.230',-0.030,-0.005
'0:08.232',0.000,-0.005
'0:08.234',-0.010,-0.005
'0:08.236',-0.010,-0.010
'0:08.238',-0.030,-0.010
'0:08.240',-0.025,-0.010
'0:08.242',-0.040,-0.015
'0:08.244',-0.035,-0.015
'0:08.246',-0.010,-0.020
'0:08.248',-0.005,-0.020
'0:08.250',-0.020,-0.020
'0:08.252',-0.030,-0.020
'0:08.254',-0.040,-0.020
'0:08.256',-0.030,-0.020
'0:08.258',-0.045,-0.015
'0:08.260',-0.060,-0.015
'0:08.262',-0.020,-0.015
'0:08.264',0.000,-0.015
'0:08.266',-0.025,-0.015
'0:08.268',-0.020,-0.020
'0:08.270',0.015,-0.020
'0:08.272',-0.035,-0.020
'0:08.274',-0.040,-0.025
'0:08.276',-0.060,-0.030
'0:08.278',-0.050,-0.030
'0:08.280',-0.035,-0.035
'0:08.282',-0.050,-0.040
'0:08.284',-0.035,-0.045
'0:08.286',-0.050,-0.050
'0:08.288',-0.040,-0.050
'0:08.290',-0.030,-0.050
'0:08.292',-0.030,-0.045
'0:08.294',-0.050,-0.040
'0:08.296',-0.045,-0.035
'0:08.298',-0.060,-0.030
'0:08.300',-0.080,-0.025
'0:08.302',-0.045,-0.025
'0:08.304',-0.040,-0.025
'0:08.306',-0.045,-0.030
'0:08.308',-0.040,-0.040
'0:08.310',-0.030,-0.050
'0:08.312',-0.065,-0.060
'0:08.314',-0.065,-0.065
'0:08.316',-0.055,-0.070
'0:08.318',-0.070,-0.075
'0:08.320',-0.075,-0.070
'0:08.322',-0.070,-0.065
'0:08.324',-0.055,-0.060
'0:08.326',-0.055,-0.050
'0:08.328',-0.060,-0.045
'0:08.330',-0.050,-0.045
'0:08.332',-0.065,-0.045
'0:08.334',-0.075,-0.045
'0:08.336',-0.075,-0.050
'0:08.338',-0.085,-0.055
'0:08.340',-0.095,-0.060
'0:08.342',-0.080,-0.065
'0:08.344',-0.070,-0.070
'0:08.346',-0.070,-0.075
'0:08.348',-0.065,-0.080
'0:08.350',-0.075,-0.080
'0:08.352',-0.075,-0.085
'0:08.354',-0.080,-0.085
'0:08.356',-0.075,-0.085
'0:08.358',-0.100,-0.085
'0:08.360',-0.085,-0.085
'0:08.362',-0.080,-0.085
'0:08.364',-0.075,-0.085
'0:08.366',-0.055,-0.080
'0:08.368',-0.060,-0.075
'0:08.370',-0.080,-0.070
'0:08.372',-0.090,-0.070
'0:08.374',-0.105,-0.065
'0:08.376',-0.110,-0.065
'0:08.378',-0.110,-0.070
'0:08.380',-0.100,-0.070
'0:08.382',-0.075,-0.070
'0:08.384',-0.065,-0.070
'0:08.386',-0.055,-0.070
'0:08.388',-0.050,-0.070
'0:08.390',-0.055,-0.065
'0:08.392',-0.075,-0.060
'0:08.394',-0.065,-0.055
'0:08.396',-0.060,-0.050
'0:08.398',-0.065,-0.045
'0:08.400',-0.055,-0.040
'0:08.402',-0.040,-0.040
'0:08.404',-0.045,-0.045
'0:08.406',-0.040,-0.050
'0:08.408',-0.045,-0.055
'0:08.410',-0.050,-0.060
'0:08.412',-0.070,-0.065
'0:08.414',-0.080,-0.070
'0:08.416',-0.080,-0.070
'0:08.418',-0.065,-0.065
'0:08.420',-0.025,-0.060
'0:08.422',-0.030,-0.055
'0:08.424',-0.030,-0.045
'0:08.426',-0.030,-0.030
'0:08.428',0.000,-0.020
'0:08.430',-0.010,-0.015
'0:08.432',-0.020,-0.005
'0:08.434',-0.035,-0.005
'0:08.436',-0.040,-0.005
'0:08.438',-0.045,-0.010
'0:08.440',-0.040,-0.015
'0:08.442',-0.025,-0.020
'0:08.444',-0.030,-0.030
'0:08.446',-0.030,-0.035
'0:08.448',-0.025,-0.040
'0:08.450',-0.005,-0.045
'0:08.452',-0.035,-0.045
'0:08.454',-0.045,-0.045
'0:08.456',-0.065,-0.045
'0:08.458',-0.100,-0.050
'0:08.460',-0.085,-0.050
'0:08.462',-0.080,-0.055
'0:08.464',-0.080,-0.060
'0:08.466',-0.080,-0.065
'0:08.468',-0.080,-0.075
'0:08.470',-0.090,-0.085
'0:08.472',-0.100,-0.090
'0:08.474',-0.115,-0.100
'0:08.476',-0.120,-0.105
'0:08.478',-0.135,-0.105
'0:08.480',-0.130,-0.110
'0:08.482',-0.105,-0.110
'0:08.484',-0.115,-0.110
'0:08.486',-0.100,-0.110
'0:08.488',-0.105,-0.110
'0:08.490',-0.095,-0.110
'0:08.492',-0.100,-0.105
'0:08.494',-0.120,-0.105
'0:08.496',-0.130,-0.105
'0:08.498',-0.135,-0.100
'0:08.500',-0.120,-0.100
'0:08.502',-0.115,-0.100
'0:08.504',-0.105,-0.105
'0:08.506',-0.105,-0.105
'0:08.508',-0.105,-0.110
'0:08.510',-0.120,-0.115
'0:08.512',-0.140,-0.125
'0:08.514',-0.135,-0.130
'0:08.516',-0.130,-0.130
'0:08.518',-0.145,-0.130
'0:08.520',-0.130,-0.130
'0:08.522',-0.110,-0.130
'0:08.524',-0.110,-0.125
'0:08.526',-0.130,-0.120
'0:08.528',-0.115,-0.115
'0:08.530',-0.110,-0.110
'0:08.532',-0.125,-0.110
'0:08.534',-0.140,-0.110
'0:08.536',-0.140,-0.110
'0:08.538',-0.160,-0.115
'0:08.540',-0.130,-0.120
'0:08.542',-0.125,-0.125
'0:08.544',-0.130,-0.130
'0:08.546',-0.150,-0.130
'0:08.548',-0.120,-0.135
'0:08.550',-0.145,-0.140
'0:08.552',-0.160,-0.140
'0:08.554',-0.175,-0.145
'0:08.556',-0.160,-0.145
'0:08.558',-0.195,-0.145
'0:08.560',-0.185,-0.140
'0:08.562',-0.140,-0.130
'0:08.564',-0.090,-0.115
'0:08.566',-0.045,-0.085
'0:08.568',0.010,-0.045
'0:08.570',0.050,0.005
'0:08.572',0.070,0.070
'0:08.574',0.120,0.145
'0:08.576',0.190,0.225
'0:08.578',0.280,0.305
'0:08.580',0.390,0.380
'0:08.582',0.505,0.440
'0:08.584',0.520,0.475
'0:08.586',0.510,0.490
'0:08.588',0.470,0.475
'0:08.590',0.385,0.430
'0:08.592',0.330,0.360
'0:08.594',0.250,0.275
'0:08.596',0.155,0.175
'0:08.598',0.060,0.080
'0:08.600',-0.060,-0.015
'0:08.602',-0.135,-0.090
'0:08.604',-0.205,-0.150
'0:08.606',-0.220,-0.185
'0:08.608',-0.205,-0.205
'0:08.610',-0.210,-0.205
'0:08.612',-0.195,-0.195
'0:08.614',-0.165,-0.175
'0:08.616',-0.145,-0.155
'0:08.618',-0.130,-0.140
'0:08.620',-0.130,-0.125
'0:08.622',-0.110,-0.115
'0:08.624',-0.090,-0.110
'0:08.626',-0.095,-0.105
'0:08.628',-0.105,-0.100
'0:08.630',-0.115,-0.100
'0:08.632',-0.115,-0.100
'0:08.634',-0.115,-0.095
'0:08.636',-0.115,-0.095
'0:08.638',-0.110,-0.095
'0:08.640',-0.110,-0.095
'0:08.642',-0.080,-0.095
'0:08.644',-0.120,-0.100
'0:08.646',-0.100,-0.100
'0:08.648',-0.080,-0.105
'0:08.650',-0.110,-0.105
'0:08.652',-0.145,-0.105
'0:08.654',-0.125,-0.105
'0:08.656',-0.130,-0.100
'0:08.658',-0.115,-0.090
'0:08.660',-0.110,-0.085
'0:08.662',-0.080,-0.075
'0:08.664',-0.065,-0.070
'0:08.666',-0.070,-0.065
'0:08.668',-0.080,-0.060
'0:08.670',-0.095,-0.060
'0:08.672',-0.100,-0.065
'0:08.674',-0.095,-0.065
'0:08.676',-0.115,-0.070
'0:08.678',-0.110,-0.075
'0:08.680',-0.085,-0.080
'0:08.682',-0.090,-0.080
'0:08.684',-0.065,-0.075
'0:08.686',-0.040,-0.070
'0:08.688',-0.065,-0.065
'0:08.690',-0.045,-0.060
'0:08.692',-0.080,-0.050
'0:08.694',-0.065,-0.045
'0:08.696',-0.100,-0.040
'0:08.698',-0.105,-0.040
'0:08.700',-0.095,-0.040
'0:08.702',-0.080,-0.045
'0:08.704',-0.070,-0.050
'0:08.706',-0.060,-0.055
'0:08.708',-0.080,-0.060
'0:08.710',-0.080,-0.065
'0:08.712',-0.075,-0.065
'0:08.714',-0.055,-0.065
'0:08.716',-0.095,-0.065
'0:08.718',-0.075,-0.060
'0:08.720',-0.055,-0.055
'0:08.722',-0.035,-0.050
'0:08.724',-0.030,-0.050
'0:08.726',-0.030,-0.045
'0:08.728',-0.035,-0.045
'0:08.730',-0.045,-0.045
'0:08.732',-0.040,-0.045
'0:08.734',-0.045,-0.040
'0:08.736',-0.045,-0.035
'0:08.738',-0.045,-0.035
'0:08.740',-0.035,-0.025
'0:08.742',-0.015,-0.020
'0:08.744',0.000,-0.015
'0:08.746',0.005,-0.010
'0:08.748',0.000,-0.005
'0:08.750',-0.015,-0.005
'0:08.752',-0.020,0.000
'0:08.754',-0.025,0.000
'0:08.756',-0.015,0.005
'0:08.758',0.000,0.010
'0:08.760',-0.010,0.015
'0:08.762',0.020,0.020
'0:08.764',0.030,0.025
'0:08.766',0.050,0.030
'0:08.768',0.055,0.035
'0:08.770',0.045,0.040
'0:08.772',0.040,0.040
'0:08.774',0.030,0.045
'0:08.776',0.030,0.045
'0:08.778',0.035,0.055
'0:08.780',0.055,0.060
'0:08.782',0.065,0.070
'0:08.784',0.085,0.085
'0:08.786',0.130,0.100
'0:08.788',0.100,0.110
'0:08.790',0.075,0.120
'0:08.792',0.090,0.130
'0:08.794',0.090,0.135
'0:08.796',0.095,0.135
'0:08.798',0.095,0.135
'0:08.800',0.110,0.130
'0:08.802',0.120,0.130
'0:08.804',0.130,0.130
'0:08.806',0.150,0.130
'0:08.808',0.135,0.135
'0:08.810',0.100,0.140
'0:08.812',0.100,0.145
'0:08.814',0.115,0.150
'0:08.816',0.095,0.150
'0:08.818',0.115,0.145
'0:08.820',0.125,0.140
'0:08.822',0.110,0.135
'0:08.824',0.125,0.130
'0:08.826',0.115,0.125
'0:08.828',0.105,0.125
'0:08.830',0.090,0.120
'0:08.832',0.085,0.120
'0:08.834',0.070,0.120
'0:08.836',0.060,0.120
'0:08.838',0.060,0.115
'0:08.840',0.050,0.105
'0:08.842',0.095,0.095
'0:08.844',0.045,0.080
'0:08.846',0.040,0.065
'0:08.848',0.030,0.050
'0:08.850',-0.005,0.035
'0:08.852',-0.015,0.025
'0:08.854',-0.010,0.015
'0:08.856',-0.035,0.005
'0:08.858',-0.040,0.000
'0:08.860',-0.030,-0.005
'0:08.862',-0.040,-0.010
'0:08.864',-0.050,-0.015
'0:08.866',-0.040,-0.020
'0:08.868',-0.060,-0.030
'0:08.870',-0.100,-0.035
'0:08.872',-0.105,-0.040
'0:08.874',-0.105,-0.045
'0:08.876',-0.115,-0.055
'0:08.878',-0.095,-0.060
'0:08.880',-0.090,-0.065
'0:08.882',-0.065,-0.075
'0:08.884',-0.085,-0.080
'0:08.886',-0.090,-0.085
'0:08.888',-0.115,-0.090
'0:08.890',-0.135,-0.090
'0:08.892',-0.135,-0.090
'0:08.894',-0.115,-0.090
'0:08.896',-0.125,-0.090
'0:08.898',-0.125,-0.085
'0:08.900',-0.120,-0.085
'0:08.902',-0.110,-0.085
'0:08.904',-0.095,-0.090
'0:08.906',-0.100,-0.090
'0:08.908',-0.115,-0.095
'0:08.910',-0.125,-0.100
'0:08.912',-0.140,-0.105
'0:08.914',-0.145,-0.105
'0:08.916',-0.140,-0.110
'0:08.918',-0.120,-0.105
'0:08.920',-0.115,-0.105
'0:08.922',-0.105,-0.100
'0:08.924',-0.105,-0.090
'0:08.926',-0.100,-0.085
'0:08.928',-0.115,-0.080
'0:08.930',-0.120,-0.080
'0:08.932',-0.135,-0.080
'0:08.934',-0.140,-0.085
'0:08.936',-0.140,-0.085
'0:08.938',-0.125,-0.090
'0:08.940',-0.105,-0.095
'0:08.942',-0.110,-0.100
'0:08.944',-0.100,-0.100
'0:08.946',-0.105,-0.095
'0:08.948',-0.100,-0.090
'0:08.950',-0.105,-0.085
'0:08.952',-0.110,-0.080
'0:08.954',-0.125,-0.070
'0:08.956',-0.140,-0.065
'0:08.958',-0.125,-0.065
'0:08.960',-0.115,-0.065
'0:08.962',-0.135,-0.070
'0:08.964',-0.105,-0.080
'0:08.966',-0.110,-0.085
'0:08.968',-0.120,-0.095
'0:08.970',-0.125,-0.100
'0:08.972',-0.125,-0.105
'0:08.974',-0.125,-0.105
'0:08.976',-0.120,-0.105
'0:08.978',-0.125,-0.100
'0:08.980',-0.110,-0.090
'0:08.982',-0.095,-0.085
'0:08.984',-0.090,-0.075
'0:08.986',-0.095,-0.070
'0:08.988',-0.105,-0.065
'0:08.990',-0.110,-0.065
'0:08.992',-0.100,-0.065
'0:08.994',-0.120,-0.070
'0:08.996',-0.130,-0.070
'0:08.998',-0.125,-0.070
'0:09.000',-0.105,-0.075
'0:09.002',-0.105,-0.075
'0:09.004',-0.095,-0.075
'0:09.006',-0.105,-0.080
'0:09.008',-0.110,-0.080
'0:09.010',-0.100,-0.080
'0:09.012',-0.130,-0.080
'0:09.014',-0.135,-0.080
'0:09.016',-0.125,-0.080
'0:09.018',-0.110,-0.080
'0:09.020',-0.110,-0.080
'0:09.022',-0.095,-0.075
'0:09.024',-0.090,-0.070
'0:09.026',-0.080,-0.065
'0:09.028',-0.085,-0.065
'0:09.030',-0.095,-0.060
'0:09.032',-0.120,-0.055
'0:09.034',-0.120,-0.055
'0:09.036',-0.130,-0.055
'0:09.038',-0.115,-0.055
'0:09.040',-0.120,-0.055
'0:09.042',-0.100,-0.055
'0:09.044',-0.090,-0.055
'0:09.046',-0.095,-0.055
'0:09.048',-0.110,-0.055
'0:09.050',-0.120,-0.050
'0:09.052',-0.120,-0.050
'0:09.054',-0.120,-0.050
'0:09.056',-0.120,-0.055
'0:09.058',-0.110,-0.055
'0:09.060',-0.110,-0.055
'0:09.062',-0.100,-0.060
'0:09.064',-0.100,-0.060
'0:09.066',-0.110,-0.065
'0:09.068',-0.120,-0.065
'0:09.070',-0.125,-0.070
'0:09.072',-0.120,-0.075
'0:09.074',-0.130,-0.075
'0:09.076',-0.135,-0.080
'0:09.078',-0.125,-0.085
'0:09.080',-0.115,-0.085
'0:09.082',-0.105,-0.090
'0:09.084',-0.095,-0.090
'0:09.086',-0.125,-0.090
'0:09.088',-0.130,-0.090
'0:09.090',-0.135,-0.085
'0:09.092',-0.135,-0.085
'0:09.094',-0.145,-0.080
'0:09.096',-0.125,-0.080
'0:09.098',-0.115,-0.080
'0:09.100',-0.130,-0.080
'0:09.102',-0.115,-0.075
'0:09.104',-0.115,-0.075
'0:09.106',-0.110,-0.075
'0:09.108',-0.125,-0.070
'0:09.110',-0.125,-0.070
'0:09.112',-0.135,-0.065
'0:09.114',-0.130,-0.065
'0:09.116',-0.125,-0.065
'0:09.118',-0.125,-0.065
'0:09.120',-0.130,-0.070
'0:09.122',-0.125,-0.070
'0:09.124',-0.120,-0.075
'0:09.126',-0.140,-0.080
'0:09.128',-0.140,-0.080
'0:09.130',-0.140,-0.080
'0:09.132',-0.145,-0.080
'0:09.134',-0.160,-0.080
'0:09.136',-0.140,-0.080
'0:09.138',-0.130,-0.080
'0:09.140',-0.120,-0.075
'0:09.142',-0.115,-0.075
'0:09.144',-0.110,-0.070
'0:09.146',-0.130,-0.070
'0:09.148',-0.140,-0.070
'0:09.150',-0.140,-0.070
'0:09.152',-0.150,-0.070
'0:09.154',-0.155,-0.070
'0:09.156',-0.135,-0.070
'0:09.158',-0.125,-0.075
'0:09.160',-0.110,-0.075
'0:09.162',-0.100,-0.075
'0:09.164',-0.100,-0.075
'0:09.166',-0.130,-0.075
'0:09.168',-0.125,-0.070
'0:09.170',-0.140,-0.070
'0:09.172',-0.150,-0.070
'0:09.174',-0.150,-0.070
'0:09.176',-0.130,-0.070
'0:09.178',-0.120,-0.070
'0:09.180',-0.130,-0.070
'0:09.182',-0.105,-0.075
'0:09.184',-0.125,-0.075
'0:09.186',-0.140,-0.075
'0:09.188',-0.145,-0.080
'0:09.190',-0.135,-0.075
'0:09.192',-0.140,-0.075
'0:09.194',-0.160,-0.075
'0:09.196',-0.125,-0.075
'0:09.198',-0.130,-0.075
'0:09.200',-0.140,-0.075
'0:09.202',-0.135,-0.075
'0:09.204',-0.140,-0.075
'0:09.206',-0.150,-0.080
'0:09.208',-0.135,-0.080
'0:09.210',-0.145,-0.080
'0:09.212',-0.150,-0.080
'0:09.214',-0.150,-0.080
'0:09.216',-0.130,-0.075
'0:09.218',-0.120,-0.075
'0:09.220',-0.110,-0.070
'0:09.222',-0.100,-0.065
'0:09.224',-0.110,-0.065
'0:09.226',-0.105,-0.060
'0:09.228',-0.110,-0.055
'0:09.230',-0.105,-0.050
'0:09.232',-0.115,-0.050
'0:09.234',-0.110,-0.045
'0:09.236',-0.120,-0.045
'0:09.238',-0.100,-0.045
'0:09.240',-0.110,-0.045
'0:09.242',-0.085,-0.040
'0:09.244',-0.105,-0.040
'0:09.246',-0.100,-0.040
'0:09.248',-0.100,-0.040
'0:09.250',-0.095,-0.035
'0:09.252',-0.085,-0.030
'0:09.254',-0.085,-0.025
'0:09.256',-0.080,-0.020
'0:09.258',-0.060,-0.010
'0:09.260',-0.060,-0.005
'0:09.262',-0.045,0.005
'0:09.264',-0.060,0.010
'0:09.266',-0.070,0.015
'0:09.268',-0.060,0.015
'0:09.270',-0.070,0.020
'0:09.272',-0.070,0.015
'0:09.274',-0.065,0.010
'0:09.276',-0.075,0.005
'0:09.278',-0.085,-0.005
'0:09.280',-0.070,-0.015
'0:09.282',-0.090,-0.025
'0:09.284',-0.100,-0.035
'0:09.286',-0.100,-0.040
'0:09.288',-0.115,-0.045
'0:09.290',-0.125,-0.045
'0:09.292',-0.140,-0.045
'0:09.294',-0.130,-0.045
'0:09.296',-0.125,-0.045
'0:09.298',-0.125,-0.045
'0:09.300',-0.135,-0.050
'0:09.302',-0.125,-0.055
'0:09.304',-0.140,-0.060
'0:09.306',-0.130,-0.065
'0:09.308',-0.130,-0.075
'0:09.310',-0.145,-0.080
'0:09.312',-0.150,-0.080
'0:09.314',-0.135,-0.080
'0:09.316',-0.140,-0.080
'0:09.318',-0.140,-0.075
'0:09.320',-0.115,-0.075
'0:09.322',-0.130,-0.070
'0:09.324',-0.145,-0.070
'0:09.326',-0.150,-0.075
'0:09.328',-0.145,-0.075
'0:09.330',-0.160,-0.080
'0:09.332',-0.165,-0.080
'0:09.334',-0.145,-0.085
'0:09.336',-0.135,-0.085
'0:09.338',-0.130,-0.080
'0:09.340',-0.130,-0.080
'0:09.342',-0.140,-0.075
'0:09.344',-0.140,-0.075
'0:09.346',-0.150,-0.075
'0:09.348',-0.165,-0.075
'0:09.350',-0.160,-0.075
'0:09.352',-0.185,-0.075
'0:09.354',-0.150,-0.080
'0:09.356',-0.135,-0.080
'0:09.358',-0.130,-0.080
'0:09.360',-0.145,-0.080
'0:09.362',-0.135,-0.080
'0:09.364',-0.135,-0.080
'0:09.366',-0.160,-0.080
'0:09.368',-0.160,-0.085
'0:09.370',-0.170,-0.090
'0:09.372',-0.185,-0.095
'0:09.374',-0.170,-0.100
'0:09.376',-0.175,-0.105
'0:09.378',-0.165,-0.105
'0:09.380',-0.170,-0.105
'0:09.382',-0.165,-0.105
'0:09.384',-0.180,-0.105
'0:09.386',-0.195,-0.105
'0:09.388',-0.210,-0.100
'0:09.390',-0.190,-0.095
'0:09.392',-0.165,-0.085
'0:09.394',-0.110,-0.060
'0:09.396',-0.050,-0.025
'0:09.398',0.000,0.025
'0:09.400',0.055,0.090
'0:09.402',0.125,0.175
'0:09.404',0.185,0.265
'0:09.406',0.280,0.360
'0:09.408',0.375,0.455
'0:09.410',0.495,0.530
'0:09.412',0.585,0.590
'0:09.414',0.580,0.615
'0:09.416',0.555,0.610
'0:09.418',0.490,0.575
'0:09.420',0.430,0.510
'0:09.422',0.325,0.415
'0:09.424',0.235,0.310
'0:09.426',0.105,0.195
'0:09.428',-0.010,0.085
'0:09.430',-0.120,-0.010
'0:09.432',-0.240,-0.090
'0:09.434',-0.275,-0.145
'0:09.436',-0.260,-0.175
'0:09.438',-0.220,-0.185
'0:09.440',-0.195,-0.175
'0:09.442',-0.185,-0.155
'0:09.444',-0.150,-0.130
'0:09.446',-0.135,-0.105
'0:09.448',-0.160,-0.080
'0:09.450',-0.145,-0.060
'0:09.452',-0.140,-0.050
'0:09.454',-0.125,-0.045
'0:09.456',-0.115,-0.050
'0:09.458',-0.115,-0.050
'0:09.460',-0.110,-0.055
'0:09.462',-0.110,-0.060
'0:09.464',-0.135,-0.060
'0:09.466',-0.130,-0.060
'0:09.468',-0.140,-0.060
'0:09.470',-0.145,-0.055
'0:09.472',-0.150,-0.050
'0:09.474',-0.120,-0.050
'0:09.476',-0.120,-0.050
'0:09.478',-0.115,-0.050
'0:09.480',-0.105,-0.055
'0:09.482',-0.090,-0.060
'0:09.484',-0.115,-0.060
'0:09.486',-0.125,-0.060
'0:09.488',-0.125,-0.060
'0:09.490',-0.130,-0.060
'0:09.492',-0.125,-0.055
'0:09.494',-0.120,-0.050
'0:09.496',-0.095,-0.045
'0:09.498',-0.100,-0.040
'0:09.500',-0.100,-0.040
'0:09.502',-0.100,-0.040
'0:09.504',-0.110,-0.040
'0:09.506',-0.120,-0.040
'0:09.508',-0.120,-0.040
'0:09.510',-0.125,-0.035
'0:09.512',-0.100,-0.035
'0:09.514',-0.110,-0.030
'0:09.516',-0.090,-0.025
'0:09.518',-0.080,-0.020
'0:09.520',-0.080,-0.015
'0:09.522',-0.075,-0.010
'0:09.524',-0.080,-0.010
'0:09.526',-0.085,-0.005
'0:09.528',-0.100,-0.005
'0:09.530',-0.095,-0.005
'0:09.532',-0.100,-0.010
'0:09.534',-0.075,-0.010
'0:09.536',-0.075,-0.010
'0:09.538',-0.070,-0.010
'0:09.540',-0.065,-0.010
'0:09.542',-0.065,-0.005
'0:09.544',-0.080,-0.005
'0:09.546',-0.090,-0.005
'0:09.548',-0.095,0.000
'0:09.550',-0.095,0.000
'0:09.552',-0.075,0.000
'0:09.554',-0.070,0.000
'0:09.556',-0.060,0.005
'0:09.558',-0.040,0.005
'0:09.560',-0.035,0.005
'0:09.562',-0.045,0.005
'0:09.564',-0.065,0.005
'0:09.566',-0.065,0.010
'0:09.568',-0.055,0.015
'0:09.570',-0.050,0.020
'0:09.572',-0.045,0.030
'0:09.574',-0.040,0.035
'0:09.576',-0.025,0.045
'0:09.578',0.005,0.050
'0:09.580',0.005,0.055
'0:09.582',0.015,0.060
'0:09.584',0.005,0.065
'0:09.586',-0.010,0.065
'0:09.588',-0.010,0.070
'0:09.590',-0.020,0.075
'0:09.592',-0.005,0.075
'0:09.594',0.005,0.080
'0:09.596',0.030,0.085
'0:09.598',0.025,0.090
'0:09.600',0.040,0.095
'0:09.602',0.065,0.100
'0:09.604',0.060,0.105
'0:09.606',0.055,0.110
'0:09.608',0.055,0.115
'0:09.610',0.045,0.120
'0:09.612',0.060,0.125
'0:09.614',0.070,0.135
'0:09.616',0.075,0.140
'0:09.618',0.095,0.150
'0:09.620',0.120,0.155
'0:09.622',0.115,0.160
'0:09.624',0.125,0.170
'0:09.626',0.120,0.175
'0:09.628',0.120,0.180
'0:09.630',0.115,0.185
'0:09.632',0.110,0.190
'0:09.634',0.125,0.195
'0:09.636',0.150,0.200
'0:09.638',0.140,0.205
'0:09.640',0.145,0.205
'0:09.642',0.145,0.210
'0:09.644',0.130,0.210
'0:09.646',0.110,0.210
'0:09.648',0.095,0.205
'0:09.650',0.095,0.200
'0:09.652',0.095,0.195
'0:09.654',0.120,0.185
'0:09.656',0.120,0.180
'0:09.658',0.125,0.180
'0:09.660',0.125,0.175
'0:09.662',0.105,0.175
'0:09.664',0.095,0.175
'0:09.666',0.070,0.175
'0:09.668',0.060,0.170
'0:09.670',0.045,0.160
'0:09.672',0.040,0.155
'0:09.674',0.040,0.140
'0:09.676',0.040,0.125
'0:09.678',0.015,0.110
'0:09.680',0.020,0.095
'0:09.682',0.015,0.080
'0:09.684',-0.025,0.065
'0:09.686',-0.055,0.055
'0:09.688',-0.045,0.045
'0:09.690',-0.050,0.040
'0:09.692',-0.065,0.035
'0:09.694',-0.065,0.030
'0:09.696',-0.045,0.025
'0:09.698',-0.055,0.020
'0:09.700',-0.055,0.020
'0:09.702',-0.070,0.015
'0:09.704',-0.085,0.010
'0:09.706',-0.105,0.005
'0:09.708',-0.110,0.005
'0:09.710',-0.110,0.000
'0:09.712',-0.115,-0.005
'0:09.714',-0.110,-0.015
'0:09.716',-0.105,-0.020
'0:09.718',-0.110,-0.030
'0:09.720',-0.105,-0.040
'0:09.722',-0.100,-0.045
'0:09.724',-0.095,-0.055
'0:09.726',-0.130,-0.060
'0:09.728',-0.135,-0.060
'0:09.730',-0.140,-0.060
'0:09.732',-0.115,-0.060
'0:09.734',-0.125,-0.050
'0:09.736',-0.125,-0.045
'0:09.738',-0.095,-0.040
'0:09.740',-0.100,-0.035
'0:09.742',-0.125,-0.035
'0:09.744',-0.140,-0.035
'0:09.746',-0.135,-0.040
'0:09.748',-0.140,-0.045
'0:09.750',-0.145,-0.050
'0:09.752',-0.125,-0.055
'0:09.754',-0.115,-0.060
'0:09.756',-0.110,-0.060
'0:09.758',-0.120,-0.055
'0:09.760',-0.110,-0.055
'0:09.762',-0.125,-0.050
'0:09.764',-0.125,-0.045
'0:09.766',-0.125,-0.040
'0:09.768',-0.125,-0.040
'0:09.770',-0.135,-0.040
'0:09.772',-0.115,-0.045
'0:09.774',-0.120,-0.045
'0:09.776',-0.110,-0.050
'0:09.778',-0.100,-0.050
'0:09.780',-0.085,-0.055
'0:09.782',-0.105,-0.055
'0:09.784',-0.110,-0.055
'0:09.786',-0.125,-0.055
'0:09.788',-0.125,-0.050
'0:09.790',-0.125,-0.050
'0:09.792',-0.120,-0.050
'0:09.794',-0.095,-0.050
'0:09.796',-0.095,-0.050
'0:09.798',-0.090,-0.045
'0:09.800',-0.100,-0.045
'0:09.802',-0.105,-0.040
'0:09.804',-0.115,-0.035
'0:09.806',-0.115,-0.030
'0:09.808',-0.125,-0.025
'0:09.810',-0.130,-0.025
'0:09.812',-0.105,-0.025
'0:09.814',-0.100,-0.025
'0:09.816',-0.080,-0.025
'0:09.818',-0.090,-0.030
'0:09.820',-0.075,-0.035
'0:09.822',-0.100,-0.035
'0:09.824',-0.125,-0.035
'0:09.826',-0.120,-0.035
'0:09.828',-0.125,-0.035
'0:09.830',-0.130,-0.030
'0:09.832',-0.090,-0.030
'0:09.834',-0.095,-0.030
'0:09.836',-0.080,-0.030
'0:09.838',-0.070,-0.030
'0:09.840',-0.080,-0.030
'0:09.842',-0.090,-0.030
'0:09.844',-0.110,-0.030
'0:09.846',-0.115,-0.035
'0:09.848',-0.120,-0.030
'0:09.850',-0.110,-0.030
'0:09.852',-0.100,-0.030
'0:09.854',-0.100,-0.030
'0:09.856',-0.090,-0.030
'0:09.858',-0.080,-0.030
'0:09.860',-0.095,-0.030
'0:09.862',-0.105,-0.030
'0:09.864',-0.105,-0.030
'0:09.866',-0.125,-0.025
'0:09.868',-0.115,-0.025
'0:09.870',-0.110,-0.020
'0:09.872',-0.105,-0.020
'0:09.874',-0.100,-0.020
'0:09.876',-0.090,-0.025
'0:09.878',-0.095,-0.025
'0:09.880',-0.100,-0.030
'0:09.882',-0.115,-0.030
'0:09.884',-0.110,-0.030
'0:09.886',-0.105,-0.030
'0:09.888',-0.080,-0.025
